1424128.0
1372927.0553403455
1285890.1782740268
1386242.2338422416
1454845.6883622573
1401611.8499218419
1619968.750170902
1631493.873560322
1708787.6638562772
1566726.801549512
1636364.975178195
1755899.3544972287
1716984.4316091214
1658890.8358019188
1735673.7374621732
1694454.372806757
1635321.5985416358
1598454.0810736283
1544700.049099916
1524487.8128910244
1562383.6702366208
1634565.542929443
1658848.0316059291
1524964.2020004622
1413617.8634461123
1359363.2646326292
1371366.427507472
1280765.749487294
1273058.0487321324
1174535.5739477002
1198628.591669556
1310946.7155507123
1223941.3345486368
1239271.9778606694
1172172.6105147975
1032976.4342995769
1076196.3937108042
1005574.9904814429
1023015.592353164
1118947.501840954
1051638.2199941657
1029080.6993799641
940766.9758098451
868396.562929993
963867.506266409
1021417.2448159708
974869.8549789469
1018656.2545703782
1081801.7209676197
977705.3872065074
1055465.078111326
1013292.6351686724
1093866.039441445
1054997.7938539104
1092759.426176252
914544.622879685
1103112.4019141032
1116922.6154399696
1108293.293564065
1218203.5132184639
1061406.506950017
1108281.6242389209
1195187.3436474528
1081344.7001595085
1082355.3749015594
1064205.5447523983
1083330.7527134626
997936.5860687571
1064715.3359158535
1080199.9226322228
1261349.3946423149
973910.6002846159
1086172.7919789967
1041184.6546615257
1082384.6537940258
1103019.1890119067
999076.7041891621
1198565.4717341748
1166789.9201017162
1098138.374070057
979806.9105111645
1089097.5917654922
1172691.5732121333
1122696.0837920995
989602.4120123525
887109.9048144286
962813.8495100808
960728.0992311866
1189243.4809209455
1050672.7138756514
1101007.7390053007
1051655.5850613432
1059272.5318078191
1003735.174032463
963294.3089912649
930529.1485149972
1148835.5039157204
1305543.9427847415
1252119.1969633962
1033462.647869421
1024807.1755915518
1060939.2060221366
1129332.2848371076
1003401.9369800135
1126584.9171394135
1063806.320444675
1174552.4444577643
1195642.2195224653
1080560.6965135979
1067290.1393003773
873371.2575926187
1003248.2714167535
990555.9014802683
1276313.0209840222
1192223.4321728514
1011006.9448955046
1061301.5497055862
1002392.4597329965
1122133.5167164803
989366.5082452389
1130388.308799393
1047651.6727192425
929090.3567718451
1172250.3143281976
1191668.3056812172
993038.5866564289
1003835.51355823
1047363.0430513582
1096124.4873851696
1231364.0342644644
1051801.1460004507
1160351.055680111
1271777.9348293461
1072589.8274466495
1214785.3787953742
1083738.5873160958
971131.1836189411
1054723.2173875913
1228735.9687458922
1186244.961537953
1316583.8833947037
1300677.2366126715
1262345.0742895042
1268221.6161235778
1266627.9863278351
1228096.2340901452
1106819.799458616
1351080.1883282966
1295885.8003782418
1145255.4075948761
1090342.867200017
957117.7126763654
916967.4305016946
1056917.7257888746
993012.8752433636
986652.2314195547
1155047.5694463463
989740.9296802115
1015952.9358087447
951350.7791463144
982973.318142039
944771.5132943626
1019921.103896567
1029430.0150954158
915276.4702110824
814685.5213057899
866526.3562363018
707123.5394711588
1300969.2780845542
2131280.101497488
3151744.0179812987
4053140.567131318
4682740.897518876
4127736.1038289797
3305261.8021855797
2379861.616847751
1078708.4744967937
637677.0957053214
494341.57351607154
233119.7724980338
447066.0788428187
624255.2039672361
818985.465002009
840215.6470418235
981029.9558571801
1128171.4147427098
1244969.017689932
1138768.5322355418
1178249.428542901
1120474.9748863126
1226778.8922496864
1115657.2354493816
996705.030450621
921208.7552638308
1222622.581275519
1206643.676365154
1140665.6978607764
1227457.9914409742
1079312.3120374458
1206002.7247413883
1317858.3793750692
1186571.727671769
1191950.5922132505
1198885.853055981
1331740.7148871408
1229573.434559366
1346820.5788209133
1348883.554454847
1357485.3589507004
1321221.309530883
1436174.5866564289
1442482.6157038365
1408549.4724378183
1314540.0370826044
1637099.520346428
1518376.0230068304
1535507.2043750929
1543690.2495572506
1547832.1211307629
1463909.1730369364
1613913.2425532376
1651319.7356112015
1700669.113946933
1514127.1242728818
1573339.0721306878
1663175.737182345
1639999.228305456
1561755.7827122519
1624432.9090801026
1463966.2026959606
1630183.716690059
1620322.755843696
1557529.8809081754
1466182.2048948454
1392746.4659335215
1334030.364383569
1339381.128090798
1235334.1805807385
1188014.0035419941
1156529.9627652536
1224943.9963540894
1218830.731133788
1224368.6597026694
1193801.8251761077
1027732.6283286876
891428.6527704803
1097088.1875487543
1049242.4324166826
1011025.3463340044
852017.7613123925
1059434.968813812
1098269.4122802925
922164.3285639222
1127277.3471695776
887658.9188265307
741637.9096555529
928539.0867143302
1030014.0426156574
983093.2288172327
819840.8099007049
866040.9483694107
1044152.2253271968
928674.0952735271
895642.4296382718
860545.0877297265
994562.9451153933
995698.553875155
1034769.1956082319
864689.2181511755
925428.7891126304
921494.2259028095
886255.4434141723
1140537.051910414
986990.7418956083
1023738.3265093624
850590.8861849956
988958.5486382314
914074.693575237
965094.8470595496
872261.765893891
895672.3225354084
1040268.5320156529
1085670.5108839027
910674.5604753873
937115.3409690537
821948.4596010627
883178.2839174834
1040128.8641098565
876782.4543240684
953019.8928052705
1012656.2318274134
987176.934337612
919553.9921084516
1000276.6109666283
866291.7472085995
862228.765853989
789482.9785201687
941795.9436082632
933750.0824327036
1127433.399387672
972668.4117006061
854480.1474075668
996337.6550532503
1069336.5639535359
920795.0610652742
678199.7682364279
849804.0985594655
1045179.0176299931
947839.6374234259
909089.799390866
767166.3489203685
823475.9604546379
801206.0414722327
854885.7481800163
884483.870338231
810815.8895551595
829840.3578751968
946180.4037810361
947065.4776988552
834611.5506209733
922742.1324923106
810148.0706994593
930720.011441351
1049463.3577473392
1083447.8127151134
1098666.2249274836
929732.2197143383
912891.4572984264
911851.1202311713
977532.3700123839
940469.9248030942
849215.7033775283
1008790.842709995
979989.5632337654
1056551.9035351682
1066914.070291939
901335.4407357804
1030744.1839546387
1193738.519087204
1057350.4493949905
1007344.8882118826
1071925.439976439
949860.6645395502
1320165.9135135415
1244553.484111118
1212511.0300069377
1101707.3928672466
1138496.1424025937
1087861.9602067326
1119273.6872628091
1197309.3299593248
1129568.5469950947
1154559.763847142
1087895.0399651015
1126944.7324690802
1068682.178725861
972413.7980913991
1071153.5029322456
1149764.632302307
1167159.5126588081
1115705.9548818553
1065473.7726140001
1130992.9132296364
1127432.2435326353
1193403.6205692342
982916.4079305669
1080297.3698565103
1010227.0449743241
958901.3607736551
939872.7804057106
836253.3358679698
749260.0353355554
992417.3866461978
1667374.3242736242
2564709.0283787535
3598427.103907576
4560658.751482088
4625481.955845799
4078603.619506622
3083099.373787194
2108200.0065894695
819130.8426021722
678089.6654476208
418883.64875695773
374644.4681639942
586309.1851939908
665179.6847159994
991784.6759092438
1123042.3849077749
1177234.208284704
1331866.6936114065
1187567.7046209609
1183807.1699467744
1198755.7873136178
1237737.4865015373
1410298.5710336189
1171701.7142992942
1287997.7696277576
1301850.6873509386
1205353.4823399526
1346875.6747301677
1243447.9599588264
1314677.501781015
1283678.877146127
1421592.7695438785
1368564.7557958132
1250471.0130364408
1345627.3374990507
1250912.3552847533
1273535.0962766958
1488315.3427040554
1415746.2317554203
1430653.917575116
1458714.392123699
1464842.860795558
1524238.9645082376
1584118.7534490295
1582347.6359721594
1640817.6481373648
1554041.299832348
1692807.364171661
1722029.9535426544
1648042.8056032795
1574302.869514536
1664609.4138471943
1741354.7486157208
1805519.8140344473
1740225.3801664955
1781827.7821086177
1796429.4759837182
1812794.871757403
1770646.6204371366
1747643.0676534406
1624013.221777219
1559582.6236191578
1674783.8739039898
1788681.6716839853
1629202.2124824557
1631936.0521464355
1404703.9961540636
1518888.570329635
1633572.5916936672
1534093.6906490994
1403330.416561933
1231512.3763927289
1210053.8895391976
1198029.193981055
1187227.560463503
1114160.5443925955
1124440.3117735786
1194768.253702878
1198047.4203555647
1190352.7670654985
973242.2757702126
1011601.1886079609
1144436.304273927
1167595.803744325
1112538.880408288
1206712.3670622976
988176.3036781055
1144971.309514924
1172497.762391971
1125095.6111104507
1120726.823928599
1213676.114926328
1158904.4399564099
1107393.2745748337
1195345.2240839275
1111007.6509516027
1156124.2869395497
1410477.9952670522
1145541.2782526698
1283261.3931711859
1219875.9971258226
1078038.3884338103
1082348.203823418
1079398.2204736753
1247180.0964967543
1285944.468444164
1198546.750802552
1189275.8605439183
1073466.496611677
1279603.3846320254
1252798.2433528183
1239916.5747593357
1164137.168379539
1280238.6794115077
1181451.11081636
1375347.570821719
1204502.3134287745
1162057.2527391
1414285.362808688
1249330.9532867714
1211993.4675683475
1369935.740460813
1100807.484990336
1291891.7597054197
1312764.9354370516
1217006.0876220716
1072580.872628809
1109431.991892465
1237159.038054192
1267921.2143293528
1305692.7378180684
1228949.3173745512
1163190.4026656307
1195936.5310403297
1132045.7114690973
1088205.1884242338
1078846.2530832833
1044938.6377949486
1219124.9731913826
1182896.3957415926
1214375.629867737
1198005.0496157717
1093194.278045001
1062732.0589098309
1393376.2178076783
1206118.003805861
1178768.9663712627
1158715.7858665937
1080380.4331519168
1316020.5828186471
1302423.629012289
1238846.1308452692
1161020.522085162
1305063.6500323128
1212197.0834241484
1306838.215516918
1165986.1925299624
1104773.3276327548
995985.2330504842
1153305.4141351718
1113863.598941341
1158728.8332834681
1083751.7208395936
1145600.1472437158
1190053.3709836255
1305529.745105817
1293394.282646366
1263607.9398424749
1218716.7940658184
1201874.823041232
1194992.8298411523
1322508.475040154
1410452.5838741153
1348996.7469328486
1285994.5548065105
1390422.161259552
1532200.1508619434
1367432.8839985149
1262787.6167750985
1336184.2858208988
1060533.7635588173
1344865.4583258766
1317982.1381491553
1206661.961086288
1186586.3087713765
1190848.4355188992
1180916.108377882
1261777.5339068517
1086936.657691747
1122655.330039132
1180058.8602798798
1204934.5952675818
1154129.629707788
1167221.612917446
1144805.2188987965
1140652.0169662528
1168200.6137769644
1137395.7055927129
929493.7431629874
882820.9746902039
1070100.0461371264
1404563.0194238953
2044745.699930611
2714883.000394273
3699310.2692282423
4852754.404265123
4607895.901489482
3897617.60983249
3003865.2915311065
1822676.8070676327
1009609.1347591189
877221.5684316223
381578.1564744635
405031.66728587844
692175.2944113507
846653.605593052
1215183.83345921
1247583.0772158094
1261958.3306269727
1204026.7522495764
1291586.1234335625
1184568.8045474612
1389395.1162178225
1206350.8512488322
1375488.5584726164
1335868.0748213117
1267600.0188849787
1406584.2440844835
1346189.8156775797
1250851.1246686808
1256687.912977654
1331993.1724013803
1335905.4944331606
1350915.2924046821
1389789.9228042301
1347210.2203296777
1522219.9933557902
1527952.3829411757
1395964.6047820654
1395773.9724396872
1443731.6502919358
1504581.7269720333
1591724.8893751688
1655035.1266916618
1578236.5714411365
1579158.309182796
1791433.4764433631
1858639.623719344
1793958.4796418496
1668121.461331991
1747901.0347079712
1850671.9526031627
1820017.6064491437
1798687.9573045387
1728705.369052855
1757399.107326489
1826041.009518557
1825612.1339872214
1910112.5692706078
1775684.4822681258
1786583.1323080799
1928934.758126296
1961758.3486047133
1890899.4690880496
1683459.7674526556
1904460.9647681941
1878391.6356125264
1822334.250984406
1838449.8760394047
1562829.9885824202
1628220.0109178622
1563098.816565127
1449422.6220480097
1550539.752022046
1434754.4908271523
1489591.6418368248
1514299.2413342693
1342867.1779500558
1435743.863506052
1448346.4685721935
1325706.437130117
1238634.2241515086
1396586.7715587046
1375729.4189003925
1373617.5071179485
1362081.0395015483
1277562.3389941286
1259369.2489655025
1308668.657608037
1201485.9233319594
1141071.109713348
1083454.525259049
1373716.526922724
1305901.0519423382
1276336.8292098383
1195657.4674165412
1249759.0508148798
1280419.8150977246
1302116.5757268434
1210812.9930800395
1167195.795900658
1215692.4576419438
1382773.2100237748
1433355.2692339954
1434550.8277865853
1388352.5897990477
1156739.1325918233
1347329.8948520161
1416788.5775895345
1462840.654561519
1504010.835838085
1402388.3463139653
1370923.7738613402
1376821.3677136544
1385016.362792229
1527082.9348656905
1295813.3393535893
1457678.4449695363
1425915.504519354
1458342.493533904
1345218.4693035092
1371057.3959694612
1394034.214933151
1342479.17842175
1444932.5295252197
1387170.8954317055
1441125.4981712673
1320871.9854802045
1377066.2290287926
1482861.2248833396
1496564.5363013567
1427699.555534425
1325983.4196760308
1280726.7739171993
1341953.3280682836
1375113.973111408
1359125.4104693972
1263646.932010693
1366514.1718497053
1365426.401730043
1454089.905034318
1454497.0534056702
1344939.6446230537
1465203.3818415597
1479794.5594440328
1460577.0249420225
1310807.0058964198
1419233.9348293464
1382813.8415266701
1369631.7933903653
1276532.5098763234
1292543.3581268354
1453908.7804376315
1431843.958216016
1373085.6441992165
1520711.3162953067
1400435.8014177436
1320333.3543528921
1531003.7087144584
1608940.1455491274
1415824.9940950933
1560402.8995017735
1411726.215720507
1461599.7245734606
1506805.5280975478
1694308.364615858
1484145.0146717683
1403351.8825151487
1432190.0952969654
1700822.040416769
1755763.8376456099
1391925.4205155128
1365969.8534241063
1235927.4712621337
1388126.7549081072
1430217.0125090436
1328357.11337946
1170177.5419576778
1326569.697684866
1353938.245180007
1224042.6993079695
1237545.0593299284
1303860.6842607758
1217311.5071778868
1221628.9881786406
1282764.5188393008
1245710.761696306
1246347.740228854
1109074.62161248
1087648.378239794
1013499.3239950009
859747.7671731532
874585.5369321882
1224960.6027583964
1630060.6799410945
2596874.460318632
3609855.5023510423
4401057.1783738695
4446963.3222805625
4013533.3146578167
3153536.646336068
2251007.275304985
1069322.0524347557
704928.1977757484
301657.770463335
284731.86351744254
593844.9578317546
767325.1544591177
1018660.9945150021
1085174.38936872
1353398.7416317423
1372968.6676825306
1168307.1158418793
1100343.7960205416
1167492.71629799
1300656.5486144647
1173121.821230162
1217721.761776281
1209740.654265726
1226846.5965145759
1326789.875623036
1379241.8664763332
1398638.2167880333
1382133.489260083
1409526.747928374
1320576.595963078
1335142.8234370307
1317632.0
1317669.8336191608
1322260.3073921034
1353652.143829748
1345957.7460570282
1452023.0535173903
1450571.3171826762
1402182.182607274
1525829.668661572
1504271.2507207042
1448032.2135978614
1430016.0
1431615.5532951285
1613137.3351239003
1794942.6510755545
1808875.7426192907
1778060.5653565812
1793027.022947062
1707822.2744189587
1741315.4174572756
1713420.8390240103
1742176.121958537
1610550.8124872444
1618377.8403548866
1810611.6215126393
1745433.2140775416
1746929.6384551171
1603426.4057759957
1555753.9429851167
1336587.1524442881
1563262.8594684144
1548753.5394275219
1515180.189251831
1478327.7390691403
1525893.0886894225
1456200.7221349825
1436108.8994695162
1429641.9731475792
1334812.7370180003
1532470.6874949273
1455996.2615940894
1578033.4141677967
1275775.3346610332
1067217.8561663446
1035867.8125228966
1185082.4104929946
1272649.758554527
1087394.3786593673
1104985.5315079559
1114097.9718282465
1057415.5558940573
1045543.9923960984
1158411.1776067216
1023063.6060451954
1088824.123824766
1258544.7694679762
1208807.358287127
1177951.3717755766
1079366.5910698269
1114854.2496530153
1192576.293176585
1070847.9332940313
1126073.2060459
1226355.806974567
1158792.3226630995
1306108.8077145608
1063450.014223668
1148574.102624946
1300016.2332105918
1304228.459737238
1214614.3175541922
1282530.2627420847
1117477.9309117638
1013980.9336900013
985591.7980350237
1197009.347777457
1032598.0174858379
1102732.7264561872
1223909.1661089924
1220350.6997399312
1141947.0008751368
1292266.1951168384
1103332.7104978515
994670.4001510869
1006617.889207244
1063248.0431870203
1175724.2337546318
1035653.383152745
1075248.1609960243
1029508.1355739821
1227485.2476142491
1275854.0469772643
1217104.4822844202
1093603.5602237505
1012318.3881699435
1023821.981570104
1213169.482864118
1081914.7216870566
1140197.5411823858
1163932.1355583572
1205582.4595531777
1186357.3594387048
1062632.6946665305
1110766.8961637113
981020.5870079137
1113460.1403356383
1150981.034480276
1151142.7574588195
1118545.2406338544
1331083.3568202427
1190087.756667388
1107316.7877294542
1094574.5397149937
1215039.8284060138
1271362.134571328
1151407.9400340032
1271869.677904044
1352867.9541026517
1192419.3934106026
1342815.6995557004
1401137.1001711816
1204604.7366782243
1368281.0661663532
1288740.3499357647
1316692.3859394728
1224822.6603300755
1313588.714726854
1443771.951212181
1334633.7491758736
1168106.1700629112
1091777.027260107
1209850.4098978534
1084509.9380432917
1141718.64067404
939184.7235217339
1107572.4403678246
1219843.2340218958
1319043.0437911719
1230827.5315082963
1102677.7612889586
939208.6789550685
1156609.956037331
1082475.3077799242
1091179.3134211418
927052.125736376
811095.9533585944
848172.7405674481
1229341.7648009139
1882017.8197888492
2744192.506619978
3652297.7927240287
4627379.015915548
4365889.276392024
3529921.889025554
2705005.8255263795
1681453.149476031
1072023.8708425448
814423.4951016336
480441.5589884659
402454.52171313413
576290.9662389903
703672.4891436059
940198.3073201111
982787.2339495388
1225809.4768831388
1256561.6926280926
1145592.339957735
1073732.7350432256
1201985.2481497938
1304177.5425577532
1265461.7484162
1151025.444561507
1228672.60426214
1313497.9162877116
1380507.8522448535
1250637.2176276848
1188087.220125574
1378885.7408761408
1407660.497715693
1257530.899493285
1333071.2792446306
1198012.2762139016
1238984.9624735408
1210792.063263649
1274599.6360799756
1344859.1040281542
1471133.0886014649
1416125.8681950304
1550795.9326307988
1452138.2658517759
1508605.6328181524
1460895.564153389
1430919.222364199
1657073.3549004928
1842035.623647669
1686525.8273671856
1521921.4086663048
1500405.1585568557
1664953.9422885966
1820673.0753172855
1680112.101957811
1631660.6949225878
1599573.6779125268
1493139.9558327284
1691592.454060539
1593753.5766541152
1608867.9095154728
1716429.6385267747
1712180.0701837789
1738518.1551196428
1601393.5203304682
1565602.9204494634
1578564.3962217765
1424452.0376741777
1522544.3172665578
1508162.734720103
1373275.054221717
1108844.5412616848
1369757.1164096862
1269364.0792226566
1279721.3281682932
1276776.890610799
1194953.607040725
1211862.1321766567
1116518.3066646878
1078745.435719089
962471.0130123314
1045615.283685705
1056356.286699783
1132674.4464207983
1074446.8451330028
918425.3265489144
1021598.0693925265
945926.9265418387
1014993.092055164
1077714.1895997515
1004931.5050194128
904183.7842273611
929023.449730003
1196761.7886013647
1036695.4261521426
1071603.0720909517
1005250.0413438771
1176750.056428229
991616.3041937717
1068517.452345591
955126.7756522096
999447.2552738487
1046490.6192376772
1088886.5047270344
1186514.806443106
1049475.4049363441
1060036.8226656376
989621.3746054324
1094590.82678291
1154196.5477909357
1055945.7376621927
1005891.1097934868
903245.5592516292
1063877.1699428668
1037612.8518485366
1107426.52106196
1104674.6995838892
1084234.0419403743
958842.9696933683
946941.13270421
904227.0329208471
1015547.2961988251
928168.3300031354
964473.7749646909
974464.4959644004
943445.7444617499
1080093.0483446433
974232.4291584173
1008716.9592113765
994058.6885220436
1038524.3429078095
1053596.2189709651
981868.3246059491
1121442.5286694346
1176786.639738458
1043705.2873475763
1064331.2261867116
1031894.8073304641
944757.4849899581
1147759.0614369537
1115152.9871551
1201417.2354855612
1117386.354397057
1197832.5519844566
1134817.5263667973
1174085.1574701474
1092716.1163818478
953932.5423653688
1087781.8253080312
1048274.364603458
1044662.7082908133
1056843.8979911301
809525.1537157543
920980.0420237434
995717.9055663102
900096.1834112701
837688.8184515915
926261.9512160848
868358.6347966568
953365.4910071385
956392.8252156642
1057480.9375642524
861819.4643228176
727225.6560761151
930387.394058912
832610.9836492668
859783.542086387
704002.0004195613
765549.1360465209
654932.8051540373
1152090.5785226554
1942230.051072398
2784262.809366273
3691448.6165767107
4536718.946587168
4310225.184212922
3547544.9186771256
2671026.208061086
1309041.2928142282
733253.466042524
362338.3253588658
60561.566471820566
116033.33977708236
308962.8960630014
456371.6517979225
884202.4200355045
965074.725784798
982623.5522999434
1030214.1243691621
932848.7993268522
913512.2375275403
1104482.864286106
948824.6396260499
978086.5600952122
1114260.8672478984
1125620.9225004553
1084433.8818274585
1125827.1361703074
1059506.2573009029
1036348.0635268051
1307303.4714139535
1439503.8231938437
1196213.9414976733
1129274.0715751082
1114248.619989206
1166178.8085973323
1215638.6676098402
1306657.2743315094
1167067.2222130888
1104841.8626062723
1201950.801437448
1246581.4850141176
1395790.0845039045
1323072.4284945247
1446937.8198554562
1310370.7953365773
1463364.7462292037
1448661.9932078954
1444751.8244685582
1397217.423529434
1496708.338397966
1647574.2987969115
1703526.737330408
1651260.5332590844
1616654.619973249
1658026.2109872063
1689908.3758812866
1594659.8498338866
1596846.3425322212
1550952.4682441382
1559415.7522696145
1588025.4436663357
1550618.0143683448
1373393.3227597077
1271551.4498505604
1311048.1886680643
1316670.397548587
1321163.0351679584
1296391.5017572388
1217655.3939028422
1167710.5354377679
1155370.8736562578
1158781.4285748235
1166771.8771746329
1042335.1613200051
956255.0550126365
926422.9905609374
1078040.522325602
964385.1408110714
1081692.7462376908
915800.5450636435
1097591.6439357018
1087767.894308327
1126948.9084807073
1012591.1836990917
961728.1799533428
880769.3321816605
989053.1867807439
1113024.9912733915
989366.6889865691
774387.246949987
1006521.4977549227
1116562.1610999405
1087099.2365051885
943260.5161765224
1011494.4421513893
918278.734867654
920223.0806255378
1025029.9515005241
796796.3199286681
901171.7479363615
850165.5197140824
1040508.0199326293
1030876.1473756463
1047499.3796667802
1060596.7892090455
909032.9085438787
1041564.2550059106
1111380.6525704602
1192478.895987797
1099888.408942058
1105534.2122193004
906809.7853626368
949005.6586672391
949270.9969419376
894721.033544692
933634.9006125923
1008870.1524689218
971567.9913803863
1142066.342156969
939608.6534819349
1021718.3884217594
1041226.6503882089
973075.987814593
1086377.5831266718
1022264.8046800776
913699.1496864321
898409.751833729
961837.3936989146
928757.5225648376
1004005.2077248673
1093674.3375073534
966768.142190512
1015239.6342364715
1233684.2991171353
1159007.813579048
1036468.235481136
1085323.9791842683
985715.4762351951
1103668.034160878
978770.2297962738
1059406.226130513
1100056.2556222633
954524.1216542454
1003284.1212265337
1041057.8813600134
996660.7037096558
945078.30821172
940172.8459640109
968893.7932382212
981486.8294697974
906079.6329341249
859420.2230240521
972003.0350438309
1007417.6881062058
1062392.5596088814
770964.2420210723
909529.0939142902
907693.5589480606
973062.5932531054
843615.3079323763
685544.7891927776
630252.878929005
707580.7406469054
1136269.0899819338
1902240.3360211423
2690838.568343135
3738583.654130951
4584365.489692713
4328362.67013642
3275099.157613528
2162949.4519651043
1073994.1838081293
716421.8250164787
595082.5651178651
278268.2770260495
134695.68400455
195191.85213566912
458526.7124077446
678388.4917262368
824387.9153276725
1043568.2895186152
978853.6822379796
918755.1267555028
917400.5958510152
964483.4188042815
1006640.619542273
815979.0992906406
986433.4731407731
1151371.9735671484
1142091.3033267944
1057781.080869871
1022195.905541845
1074157.006808235
1035994.4220549039
945685.3964929536
1017743.82723491
990475.7499834354
869806.9147401394
1042233.4685997049
1117567.8679953557
1161164.4882888398
1121183.4447179008
1044667.9622414352
1093670.8504813253
1150064.8673436625
1210759.903183346
1218048.5585570044
1082712.9200164855
1438262.3819179626
1319068.5273383863
1311013.4974917516
1224821.7352157335
1149900.5547296135
1460970.8535278519
1444377.7807648187
1601792.1501064985
1496554.6785000304
1458645.0736262766
1354424.6585904844
1575865.4728215632
1571510.338750128
1598149.8535645213
1386155.8335790893
1414922.277353413
1397299.553459654
1330933.9921885927
1294608.5204785413
1227978.4710661767
1326214.6752222234
1197871.2635090693
1252912.6527506146
1252405.5040365702
996266.5694745339
923392.908455923
1044940.1909265526
1107582.4094864277
927186.5146255832
939299.3470379793
806844.2622254093
974242.1952722043
1001632.981154933
960499.5416303116
925473.9827418631
928084.077475599
950368.0441268566
924133.8939802693
1024612.734072149
1011664.6504445465
838788.7302141599
881743.7014907278
887416.0106618103
911038.4934700597
822878.2714284741
896639.5513047514
872924.0417237157
989142.0682249859
983941.8139390362
823517.6421726852
823841.9937349377
998119.0052722289
1197416.7906241543
1085403.9834976369
1030516.9600753098
903661.7208236309
921502.2665150183
1065424.705940461
992774.1598451559
841887.8669881058
840124.7566860925
1137748.7193005388
1140617.7092829233
966220.5590719995
1020398.0126170426
953038.3303148923
1001153.4023455576
1078472.0540176195
941877.0676211907
977142.6312712897
878912.164509325
1032401.472757726
998657.7502782242
1162892.4904479827
1022471.7739932738
1021353.9638050888
917313.9149683801
989033.6462420666
1060939.4839234783
981912.6431683876
912257.0070231913
1121472.2186823357
1281152.6793877352
1190677.7521656933
1206661.6722159863
1083258.8029887227
1078314.3122485192
1309455.8259240892
1178086.9693337306
1127439.0784230775
1142693.2905423478
1007428.8906101318
1127297.7323089591
1168510.0731661175
1175665.2675191911
1116646.986004201
1067030.25224346
1134519.3584148167
1179014.4250688278
1187508.8273187918
1180843.3224600332
1060765.8498860118
1022515.0004835887
1058113.556613665
1046520.2343178507
1077395.6586994915
1007806.434954647
1147814.082377321
1031311.4131070332
1199913.9596796841
1042075.3269926074
1132943.6327220479
1140590.6502803867
1048542.420224137
914333.3609942151
728943.6171793778
625774.4611555408
803159.0193906905
1403054.0556326692
2347039.667578155
3358273.5504662255
4141655.111138547
4637703.738211517
4173829.1602200842
3213441.2468104423
2269401.4395101867
840242.4032337752
725840.8686884578
376750.1147869192
230425.47790597813
394307.68196528597
562117.2753175538
815859.2497645571
960477.3086669659
1085079.8374051496
1046816.4518375408
1050963.1105042626
1183110.1389045767
1176230.8240924522
1217152.8710860212
1144174.93646875
1040189.0972523568
1043662.3053574096
1028622.378094801
1268087.9494885562
1350869.173745536
1127311.046477381
1136635.1377570827
1169283.9466661536
1256830.8788811208
1296972.2201059016
1346403.4394412478
1196388.4172730427
1265592.7920988742
1278592.254146222
1380496.974706495
1374267.9608582505
1409111.1782061069
1400786.5062059686
1520841.551593053
1377927.3891291416
1448650.3266611632
1447164.9381069548
1555814.706755832
1534508.1960109805
1755673.5085770243
1769179.358487787
1546709.7099185025
1407549.0526410602
1616902.5679942332
1830864.1142715793
1595289.7905917442
1604944.9017521169
1628873.4262873174
1842102.9778207697
1818965.5946566719
1623540.4473440007
1653947.7927824815
1664415.578069559
1612150.1019177353
1604613.579012614
1649358.9139017009
1537693.277545456
1483690.95015297
1373223.6755969892
1512868.0235388055
1446761.2211572877
1496384.3731312293
1332120.190203036
1372425.6077202598
1405415.9027591785
1505818.670217971
1184151.3179026057
1070666.6420168113
1063022.1860687833
1253298.9879867705
1276768.2637177566
1129793.7066478438
1117613.4645664745
1069201.3663539148
1199891.4099654334
1215208.7558639117
1151297.2482823953
1049651.3644433431
1100780.4176404723
1249640.3655273174
1151440.0362108534
1254507.0216156729
1244950.6218564722
1200090.4664853686
1152366.9947430426
1144704.2041709952
1196440.6098274528
1131154.8556302956
1201201.269509567
1265530.7056840733
1331587.6578440496
1247747.2758065604
1171432.7253134304
1095915.8286897384
1157674.9013077398
1324757.8904308036
1291948.44208721
1270661.8805726576
1188849.0104619565
1204752.7453971908
1309752.9630133295
1267447.8231733434
1221181.7835680314
1166139.73022605
1230072.3954536081
1274904.0776834371
1305186.2390954576
1249981.7544128126
1171452.107458595
1158358.790515327
1277408.528820889
1418967.88554674
1120477.9088639496
1165072.081344966
1283903.5895229646
1244345.5755624848
1310807.922976903
1109202.1506417145
1135500.2569891526
1102919.4438852235
1314407.4485432785
1348494.7159188248
1268805.268534261
1303199.1223257992
1355607.536657264
1302613.861191188
1351509.119403743
1342515.8701140939
1386540.8937055385
1215118.554602235
1340786.2093522213
1348031.2713286306
1387808.5935605986
1358773.233039108
1267736.0998866153
1329021.692463577
1407608.8609519526
1310769.1168175505
1224151.8187081527
1120897.0126764646
1186984.3633440628
1210437.1296739976
1172847.892061214
1293977.3489088228
1201463.240338389
1235184.9798391648
1321347.760584977
1311839.8552913633
1172241.7707151468
1172696.7633075262
1144079.5284171023
1288259.1653737528
1203395.2223492754
1096831.2179677973
985084.8661094051
799093.7906392862
916824.8280998648
1498723.0885658285
2325608.7787631094
3142280.4246566086
4199697.586713194
4943159.896332636
4614612.821442013
3731045.1322771274
2640303.021356417
1534556.9494595628
932938.8756082765
671202.0296569036
230713.48229885023
525039.6043691105
798723.3811932683
959675.1341424147
1158757.5563370667
1322527.8405389565
1378992.123577888
1246451.9555773481
1262445.933269562
1397694.9295720563
1445712.5436023835
1152805.8835702694
1229042.8218531793
1398348.7008312321
1373799.6569723126
1350037.5591324538
1289177.4828074053
1387526.3708355683
1455422.3504723227
1277951.9498439461
1448527.009630287
1495883.8005779209
1527253.106943084
1469100.3225673197
1507687.901412174
1555670.8906345668
1553801.0617685707
1576206.0281596992
1620142.6647555393
1673259.2792439472
1743917.841095384
1632860.6461666822
1570505.4679996332
1724343.7445295262
1859919.0930549474
1819744.8166214845
1685888.662608773
1733711.1264199894
1672257.8592555157
1899501.573579917
1900915.926301554
2029169.3732313884
1825286.534858249
1785687.4114961622
1889048.852835934
1945848.4732973382
1929308.7462376903
1808031.8225817687
1749747.3858946532
1886711.639822332
1815788.6373037254
1757232.183295633
1649323.1306411664
1673720.867759324
1740421.2526879755
1620830.7466934389
1501668.038062172
1512428.6901176162
1430646.6185936332
1549496.7614519661
1651753.584678667
1418810.5050312942
1379557.135594694
1320227.3943071605
1173750.8227646437
1337235.7198245313
1274739.9792842695
1184037.233518601
1146228.7793218803
1221087.1702985973
1219501.6312228998
1228555.8332634335
1213176.440052857
1090781.783811355
1159605.6246141775
1279364.8080096617
1312642.9048826993
1251295.014707595
1247909.3377511974
1162956.8465953094
1255519.5023247085
1246631.1992261247
1227323.880356676
1178121.05196579
1285791.5864409595
1201693.7233176243
1337591.675953734
1254551.88744066
1195278.4449333695
1224268.9619294954
1282702.4491190694
1287379.8484074015
1134159.9016327632
1031856.3901124456
1124783.6565758463
1257046.7502585105
1328070.350803597
1268393.897171475
1131750.760784141
1275569.6156206424
1113967.7335953496
1333021.2595520932
1213707.7721142853
1228326.208680501
1257115.4687638914
1253602.7126878954
1345415.3558725931
1310970.796096941
1240490.7084915354
1078757.6104859551
1267562.1490621036
1405091.792966891
1304180.8100652483
1176330.5774217753
1164848.9360882307
1237273.8224048247
1397082.348445105
1310244.0386814293
1402534.688119101
1251067.240594443
1237900.1958158978
1256431.6963821896
1152178.2349169115
1308001.3193812296
1323803.2313243144
1193727.2247631175
1261457.4080662497
1335053.4447416677
1319957.4188890208
1191857.1068700736
1359361.7587581151
1334951.4741802912
1433853.991317526
1313272.915124922
1234302.0425794832
1267584.9932637606
1288291.9477336884
1333157.8822353198
1340661.0864508084
1284200.2655768543
1121010.2439678193
1252123.620169193
1265195.701694998
1187780.6504041718
1145059.896387336
1131505.6300113874
1185247.500833034
1287250.7716948807
1225193.5782614253
1183810.1151103873
1135555.7612403925
1172995.542413418
1239256.243684439
1272103.150790821
1053480.200764835
1117135.400207937
931144.1859378781
887508.964966854
1139845.4356290959
1513277.8439335707
2302503.216399725
3260837.4200788373
4297744.842026772
5039382.5974053
4389960.100446197
3636220.627853155
2702931.561908964
1402420.7763341554
946222.352491697
658860.0727755965
411416.69995099073
544349.1572255054
670399.7517887385
928372.5792039788
1077504.2944512623
1143865.2379554412
1238937.0264444035
1338368.9279168434
1413887.58332277
1319279.975727012
1094820.5263105892
1168990.371427156
1253012.7198956741
1362609.2098521108
1329279.979336693
1145225.717401172
1243611.260990283
1332881.0579864837
1401805.3441237344
1283905.1120679434
1271090.9534314678
1111283.010748929
1304340.029466648
1410911.4465876927
1581437.0312741424
1574014.8733966409
1527745.4274838765
1449433.216104095
1509764.552492321
1442944.8208817309
1589930.2804354313
1625800.3427794431
1724085.0996271565
1691948.765898676
1541487.8616192506
1525378.7129432994
1708962.1286265138
1692216.218338974
1722035.740875809
1804989.109845632
1714183.5877915383
1763086.203332198
1665594.3075953454
1806530.3220959562
1768504.3543725938
1905985.376197802
1708493.7912911328
1755451.8803566704
1708950.7092980589
1752625.9447839593
1677832.7854191693
1589776.1092496281
1567020.5517440066
1643776.3251102201
1606594.613768812
1627739.5431255635
1579035.0563085105
1431128.9813344025
1487512.9236431983
1579192.9589723006
1411974.3862313551
1352187.235206398
1167917.7019216449
1328368.6522519053
1129532.002486193
1209804.621507867
1328762.2418944035
1173710.6220359628
1220763.9938955803
1203492.1360101935
1204850.289950247
1184357.7315698327
1127700.5741074795
1152708.2558698452
1112488.0049531884
1108886.9065772763
1141359.9032592464
1157301.5747956687
1070965.9044576518
1262154.3475052707
1252077.7875778168
1188451.1781983017
1143704.0318697952
1138781.6213285779
1146137.3639791007
1283665.568558638
1311172.4198081363
1260670.723241898
1341892.3280120785
1400028.1251845278
1371163.9926088431
1247477.9755904833
1148055.3095071106
1124236.7818074168
1401375.7461091534
1413754.67802051
1346241.7802576465
1352485.9921332535
1207657.757414669
1224487.8924456376
1204890.6045334758
1346149.0980680687
1312764.5854055246
1241724.6199487974
1357152.4970078126
1337749.197866722
1354223.3824579185
1218300.765978119
1170235.491294781
1209779.2964024148
1218472.8384643563
1226781.0649427818
1236992.4919354017
1082866.0049642154
1263331.8241848256
1212895.1203113156
1189760.7792176295
1316066.1654736064
1265206.387438621
1218373.7826125768
1176684.98300489
1337607.6518155297
1262917.8243610638
1146358.6533780138
1196971.9612774677
1325153.947350275
1292950.8038363587
1262801.9895662325
1213587.766949029
1268304.3516629548
1250239.343494972
1352521.983666075
1209593.1290866625
1116041.0783184848
1255981.0351995456
1319827.883618164
1396708.8050120543
1296544.9368088741
1161525.1453805238
1227803.5922162898
1407803.2802199535
1362618.2896743228
1356613.0630885905
1231057.8310159773
1359116.522357522
1302961.009637756
1439662.2148338214
1302752.517912197
1218427.050231114
1248516.917762915
1271978.0054330425
1244585.8192312976
1262302.3424286507
1162255.0563645842
1011574.4851817178
1160371.357503337
1194787.935856113
1293985.5122411898
864303.2523472065
950375.3874061905
995534.0439456899
1218558.6413450888
1228780.2650207852
1155562.3701326123
1096682.8867964495
1148404.3337546322
853550.0632235687
903194.5977140401
922803.1932997984
1245160.4520646706
2147368.858416498
3042408.583948789
4031172.1410628674
4860025.83629463
4649510.640117776
3890690.0430601654
2961957.0012173182
1851171.8646662266
931899.2859696454
692888.6684514049
372801.78992783884
440781.2242421509
736890.1525753606
989884.3789668824
1057281.6448071066
1074332.1686702212
1314872.5490180687
1293410.2029640684
1263117.152984427
1275793.1858415967
1292771.3629806924
1234615.3333729566
1303179.915124063
1390586.35985029
1362373.3785286006
1154838.3882167852
1362556.6090762499
1240794.5414421775
1263373.8920055162
1310464.0
1311790.3021548416
1375945.7263315485
1556799.6146009958
1455692.075652646
1468903.741780143
1388613.490746823
1474541.7374217669
1553235.0245423117
1489768.8126706136
1585600.5939485824
1528463.2769287687
1684364.07917087
1657264.8735800276
1713184.4600883797
1791015.003535038
1600335.5763055172
1753778.2628336155
1762795.228553023
1809979.8302005914
1901694.2622427105
1771498.2032712393
1860663.1876570962
1782459.9317271297
1770714.3107255998
1888696.967452228
1606132.9249172441
1925756.1727693353
1896859.1770307634
1893842.6784915358
1954549.6117994972
1692229.874203688
1741656.5256991535
1768403.0786550203
1763883.1599531174
1647614.4915158853
1464486.2851410443
1438371.1538118573
1469175.9231237834
1501393.4533570574
1429355.2495176771
1354529.8243724506
1354605.036023747
1295304.353796634
1476603.7544919292
1562255.663525682
1338356.0891098438
1192361.9608579122
1280453.8783652785
1335863.6709558903
1390261.1942859984
1184699.2814946175
1250969.993355457
1313186.8649415206
1263140.116597488
1229684.359902424
1180469.256480795
1275076.6474931443
1358327.890023978
1170601.5551014377
1354199.2353503902
1170943.0831847428
1114772.0892928885
1124049.4809362055
1244207.9609986674
1181766.2630968431
1305488.383037605
1172565.9698024013
980785.31371089
1261965.4934181108
1200427.1265157443
1182833.0228382156
1310214.7710231543
1280289.3407722542
1429474.4459363462
1526361.5677478504
1413914.0228121118
1209327.640934504
1016105.7507805882
1383925.5810681866
1284485.4553431906
1344139.4874296472
1264127.1996730226
1397006.214385551
1365553.8362933118
1419437.681427152
1247779.316439303
1197458.08588992
1355962.6593596775
1211951.8940877242
1356500.0150638293
1277274.5789567563
1289271.312745839
1161402.3895644806
1279897.3516269557
1265998.6928552836
1333758.2663681263
1244761.1119920372
1230929.7600881762
1419181.5924818793
1283756.5559538193
1308805.0388588714
1116124.6613816335
1125730.7641668725
1130768.6787635642
1167847.0413795293
1310463.9833054205
1331443.9028478211
1284105.0494164373
1163158.7677049593
1147135.0386939845
1126717.936260078
1193863.6809828249
1133800.6502360709
1134587.1071342789
1208372.2620388202
1090948.2495370447
1130273.2519836775
1161864.0894694761
1049110.7745485003
1128061.65356582
1187392.8398078068
1155054.47111508
1063026.5396576987
1354725.1192496952
1021524.8996078786
1285890.000503955
1245353.1800762585
1371057.9239398546
1312874.1492067534
1297587.3657783112
1380828.4669290504
1356596.1119202278
1312640.787806028
1201410.1864766246
1323307.6292754882
1420575.9823945954
1319582.4140962674
1122506.5293766363
1218004.7484678256
1228367.8653566786
1281806.486826583
1110780.7658575815
1173906.0194612567
1108909.608790662
1298012.3044583465
1213015.553400058
1109062.254882125
1124240.3244860494
1183644.4412317574
1158232.5340464422
1172801.373226498
1173566.1031334838
1091053.3095826686
1130163.7327696665
997274.7241739123
971085.1453769475
955972.7571861167
1096115.3071301894
1465427.6237507463
2254787.4017281197
3287356.2707985598
4427124.539896469
4897352.542321863
4173188.986816639
3305528.8998693265
2569656.010106226
1221770.8459062213
876404.8048217242
494542.4388055022
411039.20553344925
581595.1053028672
745485.2277603977
972193.5255907996
1066288.4164892572
1151270.3421768046
1062074.4839219702
1273279.0823725774
1322470.0858232244
1270867.138264251
1376542.0737108905
1214201.9816610208
1479773.6907767921
1493457.6894858154
1455161.830058287
1270515.7664766323
1430671.193660798
1497766.9548223817
1396268.9381359764
1293376.7480358582
1338331.6917283405
1339332.366849556
1443274.7183809066
1471162.1758318413
1403964.0637317677
1365382.4666967718
1413271.7012268605
1425196.223698692
1654440.194090078
1470583.410597435
1424215.8116114482
1482807.793157758
1580439.234429744
1610041.9492044577
1705680.3197534238
1652113.9582156702
1690014.5166563645
1710435.4197151293
1851215.5764501898
1865417.812631061
1884477.5612348977
1898412.89768629
1936462.0122411093
1922138.4426700147
2056635.884723165
1845286.8754990797
1871315.450793314
2016797.7400604284
2057005.6133018916
1941893.288807369
1852863.3352923468
1830560.5393032327
1876548.9352575906
1783922.9429370423
1713161.4745012198
1606508.3637207136
1485421.8000505215
1461438.9183740371
1570497.1357989672
1462918.2889869697
1417372.3772559834
1455557.008746817
1480272.5852183066
1322112.0372976204
1501438.3552772778
1418403.353893596
1413543.7466092072
1366789.4124285367
1296391.7600168064
1367262.6813826677
1292410.4140594336
1248563.3949094051
1362854.715830869
1307635.6027312407
1309275.487412657
1391764.506235335
1240870.456091646
1148553.4063638374
1106623.9296552243
1267219.465618033
1203007.5062912186
1072550.0739215415
1101966.721306908
1190205.547342844
1203143.3343007306
1212083.2602469136
1247261.0650874565
1140743.2514108876
1345143.154971578
1308203.8016816084
1278882.2314277084
1263958.7031340264
1226977.3596621566
1248478.27554182
1339605.2735753933
1358724.1050838022
1372272.8758115
1295317.020752077
1305218.3212958823
1360724.4748365625
1328798.761397682
1140656.6819661236
1107553.0832042634
1132636.632178184
1166250.9473142764
1140981.2642932006
1082156.1932807874
1183270.483875812
1096083.227865033
1202756.849054509
1170150.0859920292
978571.5622538672
1065745.7873614978
1086032.2349817664
1057951.1807568204
1026257.5003971778
1123085.8032651558
1026680.0299298874
1192533.0444107638
1162872.9360172777
1058670.263912518
1142560.5963751639
1091798.6406499292
1028345.4763518478
981030.7169970691
1114836.906789009
1159166.7193576454
989034.0630036823
1037416.2485688814
1188012.7506836986
1014427.4853981945
1040951.6293279481
1050129.9709054143
933932.2432439808
1078624.7802731225
1168779.6736796119
1016424.1958393605
1118268.4305543252
1019554.8038044387
988657.7021656398
1094996.5277469337
967617.1190320507
945356.4910310798
953759.5530035835
971391.0983394042
1026540.7511582774
1037984.5031356668
1119356.864786454
938916.66509853
1104402.4458930644
1085664.9429005445
1103036.7764122293
1048037.4940820528
948952.0713867943
1006750.6972892351
993653.793477975
1017713.3869667499
1001911.966934994
988341.041292595
960959.0016057797
1168393.6854675487
1229306.0152550263
1267607.965236149
1218777.0469224118
1021310.145308339
1108835.2057774684
1238728.9042354303
1137095.5371608804
1114864.571497171
1107467.9775840854
1227091.068900442
1249387.9662994451
1219799.3075890762
1062281.989685444
1137223.1328478686
1157845.5848658879
1086343.5809359208
1052160.0
1050394.6200377657
983209.7803214854
1012526.0436782666
1132080.041512303
1121709.9564175007
1029727.7273880373
1012185.2968106271
955446.9873583335
1094996.663732325
1097041.1713302927
1047166.4456660151
897749.0789902031
991490.706292645
892814.9242755284
857249.0423402553
799228.5541076558
1358057.1021166635
2194359.262755445
3209603.573406632
4053208.815204986
4738780.667685956
4118734.434261217
3198406.5462447824
2355320.02607263
1126056.1418427743
515992.8766392999
400660.67991614324
242137.8076764711
480765.54912828887
740267.2081353565
1002355.8790444796
1115487.454995273
1185256.1196439993
1118430.1088492384
1192157.5756113695
1096325.4163972202
1190519.213185604
1265050.1183477642
1344717.6331387656
1206886.879017302
1191694.6616614612
1202091.7113410712
1212223.097539355
1352300.5912971944
1441297.9264026044
1360568.3005251028
1202013.2379802344
1149998.43824876
1242263.7844104578
1380301.1552038454
1280980.6846246577
1243789.9016395106
1353083.8949885382
1283502.700790455
1386923.9613739275
1409173.4758885973
1283379.6004997562
1400755.5158968621
1409097.666710253
1469499.8886436808
1471570.9161240186
1464122.3216682288
1432978.296988925
1622879.5466587183
1712693.3454863683
1716735.986011498
1791878.5140503193
1739199.5269906395
1729422.8102160408
1813177.8950435536
1888453.3532335795
1941030.7617289016
1845588.1803611969
1789593.8268075217
1718939.560451445
1713893.7440787002
1663316.4526695588
1588046.1706948935
1510189.5851560798
1690014.8946649285
1588953.2885115452
1504644.882930328
1602874.7051250916
1534903.7892734562
1403531.9650269754
1558214.9871199601
1472200.4483831676
1523162.3165958088
1378735.4066755858
1344383.6486696915
1237821.888990931
1323086.7430475273
1240568.9067294179
1231529.624730498
1255434.7108337039
1208947.487409111
1218939.5977830065
1081234.0916517267
1059703.8689146284
1116836.8873111168
1316608.0418810593
1155905.114858409
1139151.1805567974
1131256.506469502
1252304.8670882913
1210893.3698089893
1135049.2042314275
1101227.447126864
1306800.5683647387
1034521.7057115487
1147473.6047382576
1123337.4132073845
1161433.6495843849
1169305.9350811574
1165465.893404997
1161918.6767728385
1170033.7147468908
1208383.403490016
1088492.1788418388
1075106.2255695795
1295254.5565698503
1264629.7392688259
1307814.0185341488
1188150.6015329768
1038696.3234291577
1302125.9334624691
1241563.9278570937
1265411.4342482928
1164972.8031720938
1237007.3562520964
1256884.0076514508
1280430.3759213886
1219033.152381439
1125472.346913359
1160569.8442561715
1293133.6150006887
1224029.0127481185
1309079.6013005364
1236181.9795086635
1088339.7356467077
1167033.3004877642
1220563.98439281
1234054.6641809244
1109661.2608147105
1123870.7209238214
1100579.8996885973
1223447.346925246
1268651.5280624125
1198273.4025263812
1106667.7230136835
1216201.6154121282
1194000.1537644528
1131408.0133040533
1180659.1916228952
1109738.9200409045
1228474.7120048124
1217924.2745306783
1260614.3993233044
1298637.5635699478
1248923.5271949
1179908.5677554968
1145689.5036153586
1227611.3487814874
1083015.2641971055
1052664.125911628
1108025.802033102
1129581.1081418658
1170322.041604168
1174703.2288573005
1142259.8639983113
1069170.642760179
1092120.341632461
1110926.6825296823
1100502.4709619195
1198005.0496639793
1143186.9166829858
1236025.1826524888
1105734.0379612094
1266066.0502528043
1034731.6842244403
1063983.4495782237
1158346.5710889746
1209953.6695333251
1170825.500636869
1273579.4704314582
1193055.3382899791
1272870.6975361055
1404782.5083644486
1508300.7415462043
1169544.6061574395
1147957.1370694067
1179404.9445071889
1265543.4834624818
1405079.7596458113
1351772.1962088132
1199503.6327943932
1157538.4033275074
1416594.038849864
1396487.818785394
1149332.0834587517
1363829.4600445786
1406789.2128695827
1499090.9230881366
1474450.6586524034
1302027.9803624942
1410350.0438470345
1392514.518695641
1344926.077595136
1411709.4286712867
1345350.5715727299
1393108.2150129625
1398099.18573836
1310735.3007200446
1301344.2358613124
1266263.3533544997
1180759.9310830685
1230927.1512689795
1304684.9665393592
1273335.2785324915
1297767.3597667394
1222830.8063941943
1295968.9500937562
1130345.8990653944
1176896.3230836657
1104852.7402652032
1014428.8579331047
1038955.8078456371
1073336.742340683
892502.4029933335
919501.2631520556
1150161.410764737
1799777.2459489438
2722761.7280612406
3667906.3957868502
4619436.16151596
4555402.990781335
3957640.8378142086
3130961.0281670066
2085634.1520086732
962562.4783785542
922974.3359950641
471661.28326613165
452420.9988837835
589187.7573364214
936852.7003021169
1121443.545519554
1183550.9753133433
1290723.4935780724
1235281.0379665792
1193002.5986297566
1172182.9821171716
1320566.3436756323
1291725.493928859
1373208.180761951
1191427.7868171295
1305918.511499588
1283156.369148455
1339056.7513902234
1343577.6478636716
1591437.0989440691
1497239.0456183914
1432471.8290096421
1452746.971372999
1368132.7015093975
1552786.333481944
1455717.5896418209
1576707.2482394918
1372638.6119103704
1322779.9395056316
1464547.048960002
1463631.6459225137
1466672.2193064832
1476489.5897148403
1458305.7127274335
1577025.264868479
1581520.1278743153
1657385.0149718048
1606238.379834712
1613924.0753717923
1768470.680070476
1837942.6771090406
1789890.8082575703
1807305.0429389542
1875907.1527805035
1891939.472637503
1908899.6041314183
1772829.0316982942
1710672.3017239037
1649388.8925920269
1848600.8140346194
1810931.0194337443
1690276.101189637
1758008.6461901052
1792909.540675202
1726304.7248977602
1670172.3397173001
1720086.6247554196
1606963.0755609535
1579847.6247833106
1488078.1858013617
1538267.0443706932
1527755.8464759514
1504034.4247261202
1348145.441855431
1325661.0961245506
1385869.7574756641
1260624.746173169
1263749.196999224
1282628.5875825083
1469315.3913456334
1257502.7153187678
1261147.284974513
1058373.379610411
1121986.5609669501
1149692.0127997529
1277243.296938615
1210966.7280553468
1236350.942977474
1120038.9560850442
1131975.7037449663
1199059.7232463136
1197612.2934241504
1193439.6929050025
1002692.8976465607
1004613.6129004377
1135728.759045923
1127104.0879884665
1285739.999736806
1191709.9069579318
1091105.7465046206
1144585.760520789
1170717.6400858639
1172334.6751896373
1194610.12871804
1244014.608411332
1335448.3373985454
1394785.3474546764
1198965.0600981107
1136022.489767441
1191496.6721597638
1164891.9540410237
1337938.513302672
1294556.8560391595
1184612.2060535392
1260130.4698843742
1107372.683495473
1314693.8639986187
1193913.3258309446
1009533.0004343772
1203228.2480176862
1261118.2226413453
1167235.5134028655
1095076.3040980145
1099774.4719102546
1076590.0777469603
1159092.0575905174
1230668.812064119
1148107.6241789823
1147138.9589712766
1171103.6559012164
1118823.1206305593
1182108.135558362
1197095.3227870404
1236640.097789127
1099783.4682716439
1165635.6627454748
1092762.6407372106
1131325.397344825
1113065.2810920307
1006456.2522026856
1146998.7936817373
1181917.4811574891
1090294.6144079447
1170448.5206231538
1040986.409244661
1212460.9991645932
1197101.2102996977
1195139.6746109724
1083877.6438750615
1166100.2546746344
1131641.0244683383
1356715.458819138
1141158.8631228297
1073628.05556754
1160672.7792033919
1020235.0669328311
1139050.6243631982
1092360.7964363745
1101570.650579741
1113255.035528926
948523.9152709375
1148063.3197979438
1038209.0209514552
1110756.4134971888
875948.5476065389
910561.0955563843
1035620.7590537344
1046483.5065664477
1020549.6748738158
1040904.1046603124
1017591.9480933216
1069261.4328399834
1127429.6317783138
1166820.5772064782
1085892.7474435666
1198200.0691530677
1111087.1690431132
1136475.0958134865
1099016.4490867977
1141937.7154505313
1170660.7716711257
1107927.6100139013
1260627.9943402405
1119172.217056478
1033067.1244530409
1002759.5350740593
990481.6482721675
1125373.377119962
1166105.780909492
1141725.1281787513
1129730.4617924828
1053065.2643153176
1253746.1372582128
1159237.1518048276
1201594.359194869
1158432.654637419
1180353.7495022432
1319191.0302466932
1317516.948897815
1238089.878002083
1200325.9283766565
1239177.5952716512
1222622.867271009
1343589.5649013557
1277674.1284952387
1177771.311261979
1176256.8772259199
1212637.3227880192
1122070.535629312
1165566.3078755217
1207108.8743978112
955615.1674358003
1016291.6100060621
1144634.330075837
1062106.524892248
995836.9492688344
1023561.9222516955
1121329.497544189
1016296.0528657037
1020238.7431078283
913504.0827353573
1093228.1331607776
961743.0279009275
841631.2309008472
727347.5782483583
857346.452697664
1312922.4619783233
2019919.6750627782
3021272.1254963926
4077749.748895153
4639503.1875887485
4080403.741536702
3423086.890489811
2483623.948281816
1328873.6540017512
797995.560659107
298073.3955225278
197588.48717665934
291405.4646168723
474052.11093425716
762470.1924967266
924303.9215079969
1045510.7847584814
1126652.8993177142
1112731.3102739146
1187850.4358554683
1089083.3635963649
1043621.8988455156
1088245.9561054236
1051832.3112289002
1192372.5579696728
1084353.385735375
1082164.431401291
1079205.2235952814
1190726.3576592158
1214340.7887295776
1124149.6870982875
1215697.5977259218
1238951.6965254797
1250303.408294931
1185127.706983703
1172868.0745092225
1198496.1362408132
1366497.7597171357
1402696.7583990141
1303059.2125656584
1398970.8343151505
1347336.6103431303
1317335.8740955167
1389154.322001748
1651473.3737279424
1431632.8241013119
1349100.0786261957
1464411.0511539816
1560471.5513614663
1455654.0251848518
1551986.676197564
1513576.1262102332
1709112.8379848467
1687795.7860581353
1719045.9291526477
1703255.0114894076
1702375.71130201
1589770.435686657
1613951.6120439144
1855193.469156429
1746931.1221987824
1659279.5826744852
1688315.4933936573
1700424.1277238696
1576712.0604469096
1397261.8557294523
1528852.1742694676
1376320.6481215707
1342492.1062102732
1464538.9140867696
1255234.6985525393
1236809.8837156766
1099872.1689263321
1239403.6161473526
1264585.7877459296
1194906.0741945684
1064534.6447271316
1075901.470918457
1099705.561634259
1161407.4436142072
1167854.7349314983
1179592.0374194586
1065378.0786512839
1033379.8844374206
1117952.0
1115881.6866797055
1052639.537000596
1081304.249373876
1019504.6672016558
1109743.6963098415
1092855.520314512
1077032.375852939
1082105.376461643
958847.2760491908
1076149.7329601562
1150689.8098973092
1077597.210172015
1044633.968614974
918091.6059686444
1016316.1129551429
1046273.2836980848
996074.6063698411
911076.8270223149
989079.434511486
988977.9556805794
1084491.7811893253
1062008.5358537764
1028945.912985143
1111673.986063628
1152897.679639728
1098806.3982749868
1247289.5215703135
1158050.2538478773
1021940.419559894
1043609.7680751372
1236297.3917560882
1212018.8596450367
1117295.3783445738
1000270.7677036262
1156994.7993754183
1079526.257795385
1230131.2115584102
1294086.651901174
1041317.8462244826
976512.0458136429
1000594.0664049227
1137397.6893538733
1109812.5454849014
995719.2696333539
1047636.1524685821
1074516.444201705
1100211.0269206816
1092119.6386221969
1155986.2749665615
1171795.9443288948
1043339.276101647
1094782.3537735478
1108263.042143459
1159009.161264981
1013498.7484541292
1234913.2904309395
1102472.547738468
1126755.8645742454
1026699.8152821335
971926.1785131148
1071586.6015515008
1126777.083068087
1174523.9547545132
1098746.1319000365
1156871.6574808632
1045266.5317827183
1187253.141194817
1235770.5746241512
1123731.4338411177
966571.0389174405
1005036.4454366555
1074257.9075488616
1078686.0609246804
1135680.4925667164
1077155.039860852
1119094.8188200488
1072925.2814658906
1203384.9144453963
1142365.8716145759
1003820.5682336424
1169561.8238362418
1235433.7949654104
1216245.0059733558
1122982.5879757619
1110124.391480686
1040962.4426976457
1181218.5189992446
1166913.8816756655
1167890.9654799942
1133601.3022241048
1017515.0053474444
1201347.7278512544
1248533.7774125093
1098293.1540050565
953608.3602499977
950800.1645767008
1090403.3225912661
1119531.148574235
1210059.777124181
1120565.3289846524
1018117.3455055639
1123024.027718886
1270104.2369975888
1128906.7294463261
1175039.1834244924
1001786.9716355558
1092028.8956186816
1218330.0643556223
1164166.3890218323
1122221.0366550535
1121412.121693972
1175433.9645712355
1305264.570624775
1406768.0888778956
1317156.4749521909
1331151.4195965594
1259525.895859948
1216480.8427813214
1289138.1351593041
1210948.6406254843
1218801.0633482097
1174018.7307557466
1440012.0527699383
1417025.148561069
1171191.220426979
1041096.8263434658
1028235.8816867069
1148337.7376295847
1202901.6572010217
1084453.3503324285
990940.3750245079
1115825.743065907
1247364.363620654
1166567.3694489966
1123594.1525177993
999892.2981482741
1143356.7638068933
1165518.8694712375
1092794.6593475991
993617.716139909
803215.3328345424
700011.4492016003
890560.7154993666
1315529.5502429067
2111849.239714236
2734550.6693439535
3891201.401542162
4856164.4399584085
4573342.051281883
3677972.900749038
2677292.9536189395
1582291.8967372929
809312.3304357808
700012.5920808932
286652.8177869954
437070.15938836243
498478.5936468733
694936.0871005174
903740.7637827924
941686.8771546184
904044.9996512493
1017388.6380676467
946275.7309332333
1024796.56759521
1043208.5407140985
1118556.971180462
1124010.8693620395
1204170.979575633
1208513.0107222674
1159866.131389297
1102267.1816888147
1012938.7044044735
1094010.1357963886
1319984.099943315
1260406.6604265235
1226496.0
1228913.5090842408
1299659.646394214
1305761.2728518893
1306082.7352045071
1180550.8556260478
1243140.4343917838
1218862.463109782
1378213.3292713151
1419973.325533871
1403729.257738336
1200665.739052513
1291824.6443671559
1329377.840049873
1509095.2029371813
1358122.8844926474
1528381.8697469928
1468161.9172239592
1398560.1682226385
1531887.0600899544
1497472.7291821258
1591586.8606593912
1629345.8257797393
1622591.8143813284
1717994.5980346121
1637062.531291797
1678040.9741773466
1835911.1615405264
1719932.0116576713
1679634.7375779746
1689512.766490876
1534431.898109597
1611600.4934945386
1519589.7078146976
1572266.2609383378
1615731.7099713045
1443484.7387628595
1276603.0704800754
1229915.320828591
1220935.232750065
1315886.5131694344
1435530.415204198
1230684.8323804876
1162921.8913373766
1253078.090596946
1162453.0124771323
1132808.901979814
1165612.9267571522
1250241.3220609836
1111984.1761024985
1206833.8279460287
1246980.8624720082
1093916.150809468
1118954.32863723
974333.2964737371
1051125.8951009552
944297.2967454196
1043296.5831747163
1011706.4680756796
1082612.3887803606
1228445.4970157917
1211211.6620190602
1005970.1000713335
939945.8885710083
1027080.7658015105
1076077.133316371
1008124.4879923858
1066383.3437793856
1064693.680910141
1109498.6987320175
1146974.9715879746
1176667.3709243918
1111985.5655369111
1071471.3612280635
1227715.2028160042
1224437.519906982
1175983.6569013372
1045074.4940226169
917178.461550013
1146019.995802907
1081764.1208916805
985307.1999134677
1004173.0488964926
956087.0914341932
1129118.9084002248
1148404.0444864933
1153104.74350325
1089132.2497093913
1067259.6543727205
1180151.3731792972
1097202.6939859507
1217659.6199499841
1143885.0427806652
1006286.8555671251
949915.8992729136
1032952.2482822328
1006592.3527255405
1087389.1440852827
1121459.4075147302
1137428.8076868607
1038849.2668588519
1094601.5210184813
1032442.2793848857
955198.7891959844
1026257.4141820333
1143867.508182219
1040242.5898618852
1119568.510164955
1024891.3810428225
938783.8014965152
1055520.6907567482
1075215.6922589433
1191302.2225703248
1002154.9555530654
1043471.7869057631
1059958.2546459348
1108113.1830028985
1149287.9184081536
984547.3515777446
1115022.6577530429
971294.2178506526
1060093.6271528325
1108234.8859097676
1045463.8049969185
889245.8636213322
971960.9501669123
1154400.6165518153
1094838.5946170683
956468.7870378646
956060.3603805291
1104411.6812701176
1127283.9013802605
1141045.7151958344
1037423.214129004
1099356.7710625543
1141192.6792323885
1039465.421251081
1039375.2032707038
1151318.155871502
1075882.6749697567
1093164.86863956
1047522.9126731976
1130628.516385048
1080598.8803933566
977568.2474736705
1065805.6622216296
1024011.8774287025
1185207.3558051866
1106665.2919645533
1153758.8758835022
1099005.282569603
1185172.6227115868
1205264.979121207
1050714.97100199
894701.7261634322
1031071.3695561187
1081592.0039026556
985609.1157969012
1085085.8943164751
1083188.7758760026
1105330.9991486315
1096495.927235746
1299509.7596504055
1190044.5247770068
1060456.5404587078
1075546.5457243088
1025883.6401167752
1149512.708194704
1174391.0992828102
1221205.7083665393
1250747.8511893826
1216345.5067072136
1104610.2679493278
1264446.6476899467
1218972.9356562502
1279457.0901924802
1269184.2605875384
1201662.3275052288
1135645.2567857187
1064502.7875538794
1024049.3140003158
1034064.8683509115
1078896.4005947683
1089059.952635084
1086235.8426349065
979570.3511476085
927948.4215105302
970476.8566655405
1020162.2337940178
1048031.8454644668
1037407.7024908395
964645.1083695778
1012936.3012841158
956641.9878723484
798595.8968597101
719379.0959567894
768724.0726751026
1167304.2862951986
1781237.6241364565
2558841.920544629
3572239.4601074406
4582573.189684655
4435811.80972952
3890315.4835606413
2823560.14104789
1797813.790722481
589405.563211035
446732.10056952416
106354.87333210622
153154.46473205066
400095.0893510293
623601.4907533136
851432.6277676576
992539.3783510221
1053822.1705190002
993606.9078689397
966045.6276613786
923153.1288299382
970654.6192285089
1115238.9345131763
1142701.436890868
1058215.279727698
1085547.8192486055
957047.3157216257
1158187.2933650524
1059412.5443932833
984305.7301306158
964432.2512302516
1181135.1864512379
983373.6063520726
1107828.176587577
1043387.9677500239
1092274.3294190138
1155149.7259201289
1226085.1564026405
1211825.2405351799
1128775.416173447
1183617.2406749239
1120950.2386067729
1205586.6436589404
1301475.3269457552
1219493.771026542
1269023.0735770676
1366564.6194536637
1370555.7065191325
1451987.1814321035
1458821.5112489755
1312607.3379764694
1552712.8831260856
1637100.8539835867
1620108.8436557609
1368820.2136681294
1548851.081021333
1587853.926633168
1666560.9839191462
1462098.3936863716
1518486.4756704639
1679150.610691051
1635121.5225860507
1529977.7442454444
1615552.810929902
1426049.9130503286
1362912.4760552167
1418949.4532322662
1470459.4240418957
1420419.0744019076
1364248.147396893
1237814.1038478045
1317957.5326761361
1225753.7391127893
1271719.0242947564
1197369.1242937513
1095844.9462605254
911264.7889743483
1162485.7615202342
1180030.0621850716
1107012.7018228532
1077462.7988143852
1144946.759790992
973901.7981226249
1063037.6203695731
1009993.2671012535
783765.0782383454
888361.16191411
1024837.3158395697
998635.9176832795
976170.8320524424
934137.9987412586
873399.9918924711
896777.4019129125
1029730.330578052
1121343.8700821726
1128361.7140616248
909817.2484015893
949472.8342894019
1105453.9604464895
1118535.1079506783
1074636.0158505135
1118794.772686511
1070201.5608582534
1172239.678391059
1274684.7443821374
1280397.5073704391
1201331.7691300313
988243.8243870529
1141153.5367285663
1184443.2566336158
1139617.5008021095
1077969.7310414205
1123629.0880737377
1117788.0067705568
1285852.233675171
1199551.535193238
1264005.5971747448
1223267.1477683748
1129996.4275781026
1271568.04256777
1257148.0929231783
1219768.7143998307
1167091.4473090605
1071137.9494612042
1041494.2222760896
1120127.0569405442
1002183.7371823454
1007935.9142232692
1200331.8463433208
1256704.3585475723
1180203.9490217653
1112440.3969573516
1070516.6994154612
1125470.6491958823
1210972.8377082294
1268327.5405201754
1120553.5484869261
1051956.795168152
1164816.3785384514
1274816.354836489
1325660.4436561796
1122978.0367942622
1197754.2533862356
1287607.5169168352
1232448.5230207532
1233354.0686185476
1037824.0
1036795.5323637465
1016875.9985871023
1199016.846787536
1208922.0789151508
1175380.991705333
1103517.4306594322
921718.026526883
1126396.4157898433
1156804.856102988
1082423.629315894
1096865.8591206695
1097929.4648716396
1355918.4744743966
1164526.9239719438
1116407.2925089386
1092151.6959013187
1154219.639391728
1004658.525825858
1158686.4067102298
1272419.4201973486
1098926.19786193
1187913.283458329
1139507.9755972633
1208337.8626679438
1064565.9351166522
1114682.2965902095
1131915.48444628
1190194.9035044438
1063173.0815083326
1174817.3965574745
1140167.3288644534
1082686.7780220795
1181135.8666192826
1281515.0287606146
1170347.1694665996
1224856.8290928514
1319698.395941961
1280885.7153811008
1457757.4687450593
1327971.3812875615
1156297.9850251477
1100026.809711739
1220334.7960083103
1260313.0612287873
1285623.3283509933
1404267.04970121
1231133.3930122526
1124574.8644443895
1247512.1222344493
1207379.5468714728
1170773.91151602
1023776.8323713037
1084459.6376950976
1100352.3173580754
1141647.7827562287
1143723.5780617474
1102204.6839607446
1103949.7344482539
1070584.1646887728
1174400.070903725
1140530.2199791968
1031363.8306765561
1061627.9713526303
1036965.0625318184
1072587.3467116675
862445.3793443845
731640.139526353
938938.1888318036
1410004.7277530462
2141627.5492766565
3149005.0229427614
4015713.865655031
4590934.162079351
4139160.249923854
3378215.8022409156
2512959.8585044947
1249230.398105845
659473.1986760086
480244.9312696777
235541.99094022313
341429.5521344014
536247.666504943
732573.257638495
962021.121485633
1058850.407549326
1215095.4022621913
1183833.3009842446
1139318.7354436102
1112828.554626022
1188820.523525054
1134763.6724915472
1114328.1047397873
1149180.0461647667
1235767.570896938
1294258.2598261896
1420425.2119112483
1368411.204280015
1278744.386159369
1257870.6961926708
1369262.731606155
1307828.0213144468
1441582.096950247
1267577.3690153281
1442436.999298003
1677212.2193326254
1459656.2790206694
1432611.8998332247
1443046.3579025592
1519057.0893611447
1497148.7913860441
1628530.162107181
1634740.72466227
1553757.493594011
1519924.850808696
1593643.759607654
1788028.169990923
1769580.4998266485
1717543.392150867
1803726.1802565858
1829380.6374207006
1697419.9567279294
1783141.5009858462
1739810.916324044
1727669.8661430369
1888237.6207526175
1925272.9207080845
2047356.8789558518
1782610.852087971
1847913.0656627296
1817868.5112077144
1808437.139739304
1876872.7621945539
1623147.824564323
1623944.0227514405
1578750.8357132876
1648171.868387589
1611636.8991190402
1474565.9123977898
1506148.3145562347
1486874.006045138
1424371.9194218472
1449010.6115663606
1425967.7111105188
1298570.3537657377
1288242.2781691314
1268682.9543529362
1385887.1558596028
1299516.6974987623
1126518.4100922518
1243194.5800845504
1211907.4838618317
1347106.34697888
1210194.1935925821
1274572.9304057339
1085388.8489758729
1336283.6474305165
1247279.3777012017
1121310.9431363896
1134996.1170769958
1141828.965566946
1219285.8376530602
1203571.0287784257
1309942.4063767383
1184079.1293551356
1077037.5156596685
1221341.4336472363
1299498.8318595474
1362254.0039782105
1306081.0599554393
1127554.2963383992
1142294.1548061562
1272731.5019722066
1337909.665112094
1278279.8637748426
1189747.3010385628
1316256.5114347336
1382825.202785815
1205098.215768058
1259171.2427210037
1274821.3227916253
1254487.9447340085
1410337.9496299773
1290115.76616591
1273811.1398041723
1256341.7704121887
1168707.4624226189
1259306.56801902
1266299.7532172569
1251137.5763157075
1114197.6361519718
1135535.831422828
1294651.099731729
1213822.4038090527
1211461.6241587738
1231778.892689466
1220244.6590117682
1149417.4864774176
1174066.9202351163
1021364.5743025945
1116788.887619624
1184368.5422334294
1226439.1036323602
1259589.0686695366
1173352.301828825
1027468.6152474363
1095278.7029375816
1130332.6738543417
1157594.4744951087
1299997.768254454
1112554.7923666423
1125098.9285087774
1139046.1065106199
1186137.470358807
1198359.0970490966
1141694.6848548974
1275599.461284799
1212701.7400604282
1235285.59743504
1157215.6411729138
1191082.7472325405
1192661.8960840718
1132316.5369000598
1216896.654201181
1271549.3468467516
1155338.2549814687
1219920.7186060718
1112327.401541578
1185510.366478884
1137939.170889476
1214709.0391093332
1240860.231660645
1129063.9233862974
1276042.359563698
1141935.3371791532
1143336.6007595276
1222990.2512808968
1161365.7869621248
1137498.203714587
1222858.2379449192
1120317.469631726
1083749.2481022498
1074017.5663704039
1241609.1710879193
1464349.4820901367
1272862.959794802
1286400.375362762
1148729.887934776
1282286.262553441
1318894.6377232918
1310949.5773740516
1280579.3013832823
1314516.209407913
1339667.162927975
1225580.9246582473
1303705.282395784
1181916.533357787
1297594.4814449372
1265961.7011186993
1292151.6355763606
1297003.1718427432
1188490.6457520653
1051609.8245277933
1111178.320183728
1224377.7396213266
1181742.9692145486
1090393.8398994938
1101560.1730843014
1174405.0634184647
1292854.1985669485
1235697.1606407939
1160331.8988755667
996242.1302601683
1132244.0092900074
1190479.8852757798
980651.7947898587
939789.4056269426
1057714.298362242
1393767.7722549401
2146828.828747898
3179157.699203773
4019782.4476948474
4866723.026848705
4426282.294173888
3770482.2501909896
2732516.679447285
1517317.20216145
1012036.3047874379
824567.2710291054
420914.20299532526
483224.7206383848
628992.8248624603
798854.6721665551
907426.3447035482
1223064.309771161
1192369.0652301027
1248742.9555501728
1172507.195180854
1125542.7545960231
1166021.6392049417
1302807.5860614728
1237549.4269434009
1278452.9917919636
1345905.695623511
1214087.4555699185
1364552.9638326077
1370565.078327657
1323558.8673205967
1259932.1521203446
1326034.94800944
1354439.1287586167
1330225.7056959597
1367404.8276067714
1354389.517275438
1418503.0488521806
1406484.615807753
1399335.784425175
1222467.6707311035
1345325.86326239
1328592.3557883734
1345964.9391092253
1500749.2423923013
1601899.4580190417
1505462.9275803033
1615233.9211806203
1666271.550687688
1792701.0458819012
1773111.5379297389
1638128.688009602
1729915.8251063172
1896980.6991600755
1892523.572661647
1773706.0565240167
1741382.9911368652
1770677.1491684427
1989761.876991262
1900445.2886832147
1859957.7521996342
1681306.9822285445
1833203.3833935407
1755004.453316483
1773325.3615098903
1697040.3958720055
1461050.671711828
1463261.1722957627
1621273.4560163028
1514498.3171222305
1545587.2126116387
1418597.706636463
1350033.38333779
1243267.3049858888
1212766.0212991594
1273924.0905845563
1232735.5054045287
1079015.9611419858
1107301.406218486
1219439.9782401738
1241673.30024937
1127840.8036380715
967081.9329653004
1069752.6475250828
1127020.9412684466
1233036.8406603264
1111487.3438084149
1005401.8622473441
952090.3810703448
930795.5894088363
1123620.8333551264
1135658.9601125068
970748.9272464784
888055.2646042709
926007.1624705399
983387.6316127502
1159578.3690797877
878997.7672721475
978870.6635469433
1124684.8592970867
1068466.2710844507
1110535.651936085
1013913.6850603612
997290.8832058978
1091111.5726269954
1230768.4651656975
1249578.490392305
1168378.6600995169
1066044.39711696
1061475.9474925995
1199106.759070374
1144944.5923412761
1132167.569942834
1053425.2521113504
1105914.9399956465
1354344.1796872912
1156954.1234420508
1089986.177739135
1011712.7029017544
1033897.8468345578
1131036.2815515248
1074675.291705966
991140.079324001
870962.2775060583
1176222.2027080131
1175768.546760264
1083287.5510238837
1161573.526317043
962106.1298855636
984389.4320626709
1196500.5927803938
1239567.165011903
1018762.5399554278
990828.7998588403
961397.1209578998
1049898.0427908977
1112589.061200425
1158303.528395684
977314.2867306962
1104117.2945784177
1200923.131361792
1108603.2199311897
1010917.2775106386
887143.3509855093
1057852.3386377257
1114665.2231838224
1165416.0096978704
1216122.3364447877
1096882.3324747072
1008826.781609754
936994.0241046045
1091499.0250856718
1086550.4754008173
1018715.879216815
1039334.9834307624
935472.8020855811
1270851.0240002666
1073833.7055093409
985055.1704915017
900893.9229653891
1149578.6902066243
1018089.0669494636
1050355.6967632822
1254323.2856745236
1074822.5943228183
1188011.7058807062
1148692.2016437137
1233440.132513219
1140874.8732682695
1158803.9060624295
1094829.0948449583
1165542.7694328437
1081520.7344907096
1191424.0
1190259.2513165283
1164278.8867765844
1183107.25484189
1209028.7618058382
1063666.5829218654
1128278.389113343
1141029.716696821
1259938.297784064
1405881.5980549695
1301587.6942116402
1230441.4713830429
1169530.6473374441
1192956.8744205316
1132790.3642665884
1233093.2198939922
1250801.9303329051
1150439.4888844902
1135653.7448305648
1084500.410595544
1232296.3661586435
1218389.8865223923
1084393.8780886964
1177589.8812932798
1049089.9921084498
1061266.183013783
1197239.6060791877
1029789.5940793413
1110399.4039766523
1137468.79436942
1147146.777889319
932302.822370852
816466.3103340269
861118.5405463098
918127.5331882237
1220743.8766708337
1978173.1626924658
2626085.8314127326
3734150.5731258867
4688035.142891119
4582088.155270042
3898364.2594937314
2884668.8547654347
1867925.9864115084
784433.8449781468
634363.2605858541
366498.59541157685
357731.4307564389
484008.7683651926
810906.6345052554
1162463.5342704055
1162496.5528675718
1175009.9850577689
1068697.3819604218
1167362.2617830522
1095975.217086883
1179245.9891633128
1079498.8100081917
1130832.5347245976
1268666.7204606235
1208153.9174900874
1307488.6473433613
1157139.9432635687
1242675.7671561907
1334343.3330140004
1286957.7855633507
1219949.3251231269
1122192.11599676
1204989.1132915097
1185361.8682170727
1395944.7279833504
1411924.3250796832
1264786.1749317083
1287008.8719968318
1322327.8173008536
1296633.128664706
1448208.1538609117
1359691.500654236
1309257.8526829025
1434228.3513984333
1488618.189475625
1491913.090087546
1579447.6667340097
1629565.6205624405
1496306.519331899
1417610.114436566
1594726.2898977904
1627555.104017453
1543775.488215645
1645323.4942008823
1685596.0043055776
1680913.9041270914
1654003.497356536
1553991.9581684624
1509121.8668509088
1622986.9796238595
1614999.2812046176
1841495.2701709687
1701010.305794345
1584850.7927077364
1472857.9122587244
1427613.8802194647
1522688.0
1518903.637856079
1437593.7515493042
1503990.9926575262
1373832.6396671224
1276427.9556581744
1201114.033077395
1166252.039458763
1049282.0245407661
1156143.163534511
1150542.501265501
1124028.5098776715
1006810.8996883748
1092825.9998811304
998021.4163731063
1065727.4997896056
1107695.4547327412
1023420.8515619079
932688.7877649396
980705.0843222404
1120705.8164613752
1078591.2091580073
931125.5789211037
913130.7838867677
994076.4563984973
1032377.1172814398
991017.8537142996
1112003.5336759556
1009312.2445384719
1157434.1297891424
1214493.5234408316
1181682.8475098666
938737.1579347105
846816.3786782114
957152.134250386
1029369.5457879986
1013020.7815207798
1028364.6779967442
978018.3029386312
990119.7769185668
1079863.1377783192
979742.9348011567
987211.0200855834
891097.4243522908
983851.9070803839
1054357.895187547
1090252.6967058112
1061651.8850495548
1073190.4312547545
952765.767834732
1134178.54232801
937452.1536071035
1037082.1307602018
1126857.9766296356
1103604.2389631867
1109409.095286732
989343.7922121165
881482.3471676991
1034596.3478971638
1016420.2118876574
944284.9022068084
1039847.9780294523
961469.923787364
982216.0400411726
977633.4179244039
1031095.2999355807
1100720.209949775
938367.253882164
988854.7723389084
930126.400977505
1033149.7348915952
1034588.0683295737
977818.2711241848
1040978.218827324
1000859.7492387051
1067101.4768030003
1095373.188243398
1175662.361385935
1111238.2231896005
996545.6941992518
970312.0134835216
1038018.4304660318
1017372.7980827438
1089114.145355885
1168051.3411945286
1013145.109989617
961213.6545588314
860901.3519128846
1017419.100683623
915192.0617067612
1091677.0154783258
1164529.70516109
1126926.7421630328
1161621.592642159
1062464.9562961285
1145553.5559171564
1232260.3130306632
1436333.7815102378
1327447.2752334683
1414561.5261454529
1209712.7338593837
1281886.224376313
1219956.051571164
1157873.9886313062
1090406.4786609255
1203247.4802974497
1191131.1831103938
1267762.1892358675
1248726.1019878527
1051380.9225607247
1016834.2530741213
1117818.7084745318
1137027.946738497
1133444.8525365693
1110411.1346558707
1034793.7926374681
1134114.6051781997
1102821.3522022325
1128459.2776415702
1092667.5275828976
1037412.1198263936
1126658.1674979376
973001.0012869104
1000057.8057683173
909967.5235200708
1330886.9800321034
2030867.2882512668
3112641.0751498165
4141710.550569976
4747700.591937445
4352509.292652981
3576574.618256485
2651583.5571859293
1512359.8561847303
926516.8761157864
825973.1553596361
426759.9931622235
579914.7251762275
664399.4486553498
683379.2837893913
1058383.6180058
1125481.6294028647
1230473.0810727887
1301337.979012929
1224131.6082951715
1298660.5354700324
1270129.9787682402
1265571.9343885505
1349586.5230693058
1305429.5277819003
1324402.0731859817
1338493.6119258166
1354344.4653692541
1395814.3596594313
1285683.1703645042
1127870.026094183
1374938.5803037721
1404792.7273591796
1468501.1474048567
1365468.408582417
1355245.6540815083
1391302.836808499
1471789.0905989758
1566248.7264511425
1337882.8282859533
1366187.8110985537
1492511.8238202687
1540727.4437092796
1615623.3991128057
1522493.5890431134
1521573.1569254557
1594628.3424751596
1682224.5858156602
1797754.8002223645
1792210.8590279697
1847017.1033219725
1747666.1092669824
1631499.1381543097
1861359.8627251787
1977974.1576306177
1903312.0893744165
1768121.4173980441
1702072.180812349
1724628.5427689883
1772283.5073339322
1759466.097872437
1719350.6708606177
1690128.1619068303
1738060.9314875475
1707628.541370181
1709946.9118531863
1483171.2814258817
1584226.0056848493
1576413.2253628462
1592722.7864473485
1485782.240799857
1344788.7379975496
1383664.9182559839
1613176.5918076553
1414586.884254223
1410919.2847496544
1359233.7409094276
1249698.6872438188
1177869.2360594068
1308070.0045095035
1296329.2627347938
1201513.196260096
1169907.3499561534
1144063.391455721
1177788.4428823765
1193927.3708782112
991597.4999821633
991056.720540675
1271570.9183313907
1208693.3685860864
1129937.7450178615
1127676.1158420658
1105692.3395485405
1208793.680424187
1093653.9436710638
1185299.4297157608
1058929.8452478182
1122748.7262441076
1169804.0316606895
1275356.0531748445
1161447.8305928458
1166405.565848318
1161980.680076451
1043299.1362207043
1156811.1797176725
1121584.4969908465
1194005.5217625522
1110302.3651546116
1156870.1429335228
1220054.6070558545
1291788.0031202044
1120208.883686425
1135610.437356519
1252876.3945385648
1225951.9818597508
1113353.8963976752
1240518.0621503354
1088257.0027771674
1190143.8860972142
1177513.5889848848
1033817.3227292596
1206415.719166299
1075265.7897349661
1192266.5474061796
1249494.7768763988
1181480.4007501628
1226590.3302693223
1034670.6201321839
1130300.522085162
1150169.1743676253
1199441.5354106422
1126050.5787169964
1124364.6500920812
1126280.4201486045
1055773.48139087
1197611.454500815
1127931.143386234
1101274.8000995275
1000320.3233654455
1143302.9876427609
1167437.5761391153
1109066.3392182663
1077113.2307217377
943270.3708739963
1110083.2929636645
1171064.5582377955
1081090.1169801857
1154152.015447596
1117674.5368372425
1095884.362983072
1200426.0960025496
1067809.0686567808
1052453.025607917
834041.6038814571
940641.204972059
1171714.908742842
1271002.8337900662
1015271.1996283903
1139690.5783325662
1190155.6861041256
1144644.4821716552
1189443.031901551
1204537.1158982564
1153934.4326414408
1079886.9259404768
1245784.2034517273
1232859.008432187
1136912.9710151248
925681.9495406722
944363.8591558352
1014793.68520232
1159169.9339788412
1059634.531402414
873711.5958288235
1062622.981438996
1031111.5926567629
1052068.4124198803
1064430.1907125455
915797.9059350761
807037.7953009317
828871.7034314803
1002404.8878174872
891836.076325031
832409.6877905464
824917.9256371809
613365.355498459
797765.3072269975
932799.9366162454
1659057.6468887015
2548263.5429628063
3542374.782261159
4530530.79780917
4371602.6514504915
3724717.8196672583
2678401.3233831264
1649024.1647007875
696601.1393497841
556853.3378021982
269386.1670894424
193364.2244298901
336198.14912169595
446510.83729146933
954993.2368120421
995480.6016248034
920134.6324928391
1030336.5247535546
888157.2878710582
915538.5297078813
1002846.1466290263
924524.6748303457
902477.3672881082
1058835.2568031577
1209364.5133562698
1052035.6635937556
939942.7713026602
958227.354204379
1054980.122824045
1201741.250944503
1194218.120196198
1116542.8149415008
1145069.7264045663
1140398.2896700825
1160956.5630456256
1183515.8842990673
1116131.3515535544
1227370.2741267092
1267214.920017498
1284052.4652868598
1192244.8232415705
1152862.2436323161
1183856.4171446846
1245955.411779893
1292816.8344027814
1294239.4777092622
1421053.424497619
1391651.9022861265
1540391.317206101
1575668.786430685
1537983.0322164632
1618229.229130665
1479905.2204523853
1617064.907828205
1664437.407898152
1704632.8312497835
1597105.3071567682
1563897.7316762642
1658856.908809075
1581811.9944148273
1608010.90896125
1512588.887567828
1547861.2307210485
1469839.1991331966
1540015.6122538727
1530660.5084377523
1465493.509723695
1181613.959135638
1161669.1920375472
1217467.6508544618
1311165.7519840656
1142024.1069927358
1301432.376156997
963612.4448387747
1186366.9757473955
1064685.5957348528
1088822.1404253894
954690.151205619
949340.0874771185
1028409.4878798398
1121043.4295107431
1084400.0297311845
1064719.756548202
990312.1263669842
1051033.7182807422
1090785.4983415937
1193342.0236610838
981538.3493594514
1040626.146771658
1071565.4162418565
1082214.3146745383
1208471.4764166335
1112153.7841625367
1185679.1495558282
1071166.789244225
1100309.0963763592
1140261.1002031255
1100816.4344924407
1020416.0304781323
1054877.0025189626
1023357.2090200875
1054871.0287067555
1112520.8211002033
980235.7381708104
1240868.6278973657
1193784.4129241554
1166397.4555588535
1208540.539396786
1101475.053740838
1136963.4152981099
1163898.441795325
1159418.6238595885
1124688.4877206874
1151842.0501273668
1146751.8625591078
1116161.572206637
1268169.9546915535
1124009.0218153642
1137797.8027048213
1145687.3307655521
1252214.1601558612
1294471.8115560748
1262372.053091949
1080537.332761181
1125822.929379166
1229420.2995640521
1274503.239299925
1211879.4554591554
1232554.233443624
1146990.750086228
1201268.7298167113
1021701.8009720905
1162646.8847357417
1009685.24384914
965776.0436133577
1106855.412898485
1212232.7915952513
1205485.1819686666
1142231.6908892023
1110343.9997602482
1099868.7239863162
1072391.3597085786
1198929.4047167748
1169767.4293716229
1069659.6289790522
1169669.0844313956
1194664.1577898914
1180148.6642047146
1120987.0502891091
964974.5028317405
1031185.7284241519
1280969.3213587399
1075255.5904904841
1054344.7479046243
1023255.0579463815
1065032.007806234
1183913.7967629624
1286925.283919293
1142597.9465990844
1099762.4468400334
1133717.2949543558
1205633.8463563963
1171206.8678215158
1337069.0543426098
1205331.6354550978
1313701.3295727388
1223714.8575553594
1382397.791368474
1291256.0900935796
1192955.385144116
1158065.2681384613
1182398.0678066318
1389905.6632416137
1303123.2498709061
1156631.4137276444
1132958.936160232
1151545.2382688867
1063353.933712212
1190934.705534376
1041404.3379702198
1073590.2833507457
1011147.5269466571
1010708.4988493392
1115329.3693903668
980652.036282523
1043740.9119493482
1125935.285736355
1146488.7245205168
1224900.1701610247
1021021.1050625803
805776.7246495283
809334.5184020138
945396.2212435872
1439276.7163871662
2367734.368365193
3116846.3830363243
4209138.6676182
4854270.716820276
4619152.093462576
3608229.7013198785
2515950.69928826
1147165.5493265328
749001.2936228274
516845.5629244433
335211.4406854267
535182.2709872429
680633.6806357546
926899.0902697355
1146063.1085591747
1049325.8731902186
1235995.21471411
1166644.5339372454
1268987.7325540073
1190795.2983048507
1230543.916968248
1166908.8889921112
1120078.584473149
1172176.7137330836
1373918.845357191
1320620.4558466498
1368216.690389298
1347370.732138108
1269725.7340169458
1212674.4751540932
1386699.3517138816
1454891.7102352132
1342329.7054320988
1381850.9690040038
1515453.4351005265
1402326.573980143
1375422.720817424
1542879.4678779703
1424233.054404416
1462458.889750783
1486055.0276441935
1487403.8765781578
1517503.7689655402
1413186.0480668442
1546578.982685346
1594050.5053866897
1614400.364591066
1646505.9220083798
1669971.4965586618
1769900.2809876234
1741583.0173945103
1706957.9330383143
1708750.8136619458
1764513.4783699124
1808395.3106329031
1923397.7242056748
1920167.1274214818
1738561.0924141645
1827189.5097425673
1968041.1112549321
1758396.140288784
1680114.5384793493
1726951.2555944612
1677239.2528472575
1680186.5302660582
1577080.5883543068
1670927.4731020464
1605058.5782160426
1379615.446101073
1360786.1360580751
1372296.5809468254
1434143.2853871977
1240302.8264623336
1311775.8490429732
1268370.9026582886
1376062.5058704293
1386061.4512674497
1260049.6044204105
1091101.2511565692
1080071.0428855317
1240153.0535489789
1266965.5662412334
1165134.9852877015
917988.5739097444
1082580.7400482127
1128354.8867830364
1260872.1388495758
1174766.1518872557
1011430.760916762
1013468.4640059768
1065982.0299259357
1141559.1124832896
1170253.6177790968
1132742.8036122243
1135084.8042615373
1015096.0292623566
1085752.8796007344
1094288.8914626625
1045771.7805580178
1019899.9095524313
1266958.4120385735
1100493.1464827834
1198706.582093252
1025554.5541425832
1068494.9495509602
1227835.3578346367
1280626.7762685649
1230191.7811900126
1156510.6642617881
1026706.2080918499
1119448.318665364
1147183.3747298932
1131137.4793771275
1184103.1012057604
1204240.0345098968
1077882.6031239792
1007162.4602873711
1111956.4060076096
1120276.3131658982
1046892.0769536655
1229382.8661927723
1202886.4122662416
1051806.7080653762
1174145.5576789472
1021150.5173117925
1048350.6985036193
1113110.4550915523
1122844.3398137507
1112021.3959219172
1074266.8599499892
939889.2836472738
1138107.5623913642
1058423.2047177562
1149678.821038119
1160839.67573935
1010712.2859195998
1081464.9358002613
1115796.2894469649
1072251.1337281154
1030500.8977692813
1117409.6237679364
1068147.0509816238
1164093.4139429552
1174626.750756942
976930.5025216481
899873.8822489227
1090368.2896583625
1090056.4851097402
1154303.1747758463
1169151.780493496
1175742.8934165416
1202217.0929963947
1084901.666054113
1147417.5449496
1055693.9550244873
1149528.500838135
1105064.035395174
1147554.4955695958
1064077.7961563775
1085701.7149859543
1166653.3557289268
1141184.0378565977
1281704.2355130601
1294132.412193535
1185543.240900125
1043477.538083364
1113798.5615890045
1248462.6385255852
1336347.6536789173
1275641.3984116889
1300266.9768914126
1133016.8241070623
1249661.5037727584
1184598.5611458076
1282660.5284818064
1268925.2350669838
1163826.0082654308
1301253.6875876607
1226534.950648804
1179663.4564918696
1102617.7503108159
1107250.6946896038
1193315.9501866617
1329247.6834276943
1125402.6893172048
1159994.1662460316
1067575.385153238
953961.2568065186
1156992.237632478
1121761.9516686006
1057399.5518381984
1216325.1964402695
1169020.7451098906
1160178.647030279
1121774.4519917662
936782.0238609896
727938.6296874187
784714.3379644766
1301830.303072994
2081407.0350930274
3003963.7196366787
3976863.3532771366
4949210.408898295
4591627.626727417
3800713.183639828
2789310.3462929097
1586430.029136776
856911.1851162702
682022.284336435
439405.3776236037
481960.5739728284
713678.6798400343
964108.2603672771
1272912.0846221074
1386675.7744337276
1325306.2629193857
1187746.0565204672
1131004.657451286
1183942.486656407
1278940.719728261
1275397.1015238503
1132906.0491116408
1159374.6579503696
1262373.6084111673
1313367.3843629065
1095950.0834868562
1208976.6161589092
1262745.4236968593
1324516.988218365
1349503.2208065055
1295883.657922097
1403097.005366802
1268408.174857663
1448306.6870338963
1523051.3748716114
1370556.8926714938
1513037.9151775632
1433265.7988510753
1438260.9700995814
1561174.9335733608
1607587.665208211
1557777.9538852926
1646905.118206433
1783707.041226277
1650420.2638965566
1686087.4663897764
1639229.1780794733
1543395.2849802687
1607250.5684730816
1749201.4418335275
1879129.8372536642
1827137.3235043914
1716647.2129855782
1765358.6875900142
1821686.8115906904
1904769.5377358
1943958.4679018946
1832533.8417905371
1824689.1100222268
1748282.2877847324
1933848.005951026
1736576.2768195488
1600377.3522484126
1757790.3660149747
1729000.8503780738
1688460.6321469329
1639531.9833556882
1478509.0636028908
1529011.6161005138
1460775.5923772734
1449616.9609229404
1402197.3779165084
1349198.2846218215
1301614.9059062223
1279027.2029338616
1430917.4973328132
1328364.9903788194
1223791.4087262428
1223854.6674495593
1275577.8200626276
1301694.909990544
1362432.9172975686
1195805.9374360864
1171051.349540474
1143324.8480820642
1208210.5499206982
1252430.7934446358
1058626.4096580944
1040004.3989925323
1277853.5111368473
1181524.6498523252
1177708.8220499468
1163629.608400471
1130929.9292916975
1189491.0843948552
1254025.1311926788
1269532.3317316815
1166255.6787066546
1245205.4134166196
1169450.5011684035
1247119.2767961437
1364326.2065454524
1389727.7727390928
1293674.0968508895
1132051.3120218648
1406816.9472309158
1355075.101265355
1398370.0061189393
1232772.3268503603
1440386.5240354678
1498633.0187454028
1480153.8500760973
1311682.2553176666
1320201.7945488698
1080321.6997606743
1320935.689062641
1260116.385867142
1270589.3028788625
1253320.1682579778
1096703.4828177125
1257628.4631334895
1367501.8332686785
1273120.5155119267
1357763.9143182372
1269451.0572987846
1303239.7037449803
1338651.939746707
1318561.7313860818
1288108.4807800527
1357793.354298204
1299724.5663781026
1444212.5599238842
1435085.8745590583
1479609.4869909545
1373979.606144537
1431499.324062398
1447193.094702335
1402370.4259263827
1269138.2216704634
1469968.81250099
1338249.4313815727
1315872.1377324876
1375307.5809749912
1412347.541386124
1130868.7792495445
1197776.2634858899
1444546.827694379
1453873.1252492124
1383897.6804241918
1282943.1872123708
1326793.8902456877
1411242.6747045496
1518097.6460603836
1380578.7263630468
1484136.9578229925
1263355.7323369817
1274353.4327080583
1307372.5483101814
1325679.5085199438
1404253.9522969709
1282096.7497056683
1397749.7558428408
1455230.453941019
1406611.2196503226
1407753.9523396294
1384808.9848115372
1467650.1394968005
1429750.6724773536
1577742.1062204049
1496579.9366945869
1613559.981675372
1546908.488512981
1516587.9350453268
1503206.360837669
1492826.818165313
1392900.909656766
1315337.3187414168
1335022.6876744071
1353135.4483155832
1345785.0820344444
1240263.0203041576
1262711.871524291
1358495.0859774067
1454600.199487988
1303199.494632837
1320070.4472961144
1319093.7804703976
1261736.1853569858
1334083.2653242177
1333412.1819444082
1300384.6448948956
1304883.587331043
1083554.2925768464
1073109.042750346
1175225.5000993737
1406581.8722435313
2163866.7354617226
3201822.9795261724
4213082.410226974
4977463.894024405
4648617.374234055
3728500.517289991
2954472.122730999
1702780.5136401104
947318.1304972544
631330.2805018703
459643.10271957767
592871.9858704226
727594.0618419199
934207.4724077276
1091017.0815231889
1256575.5146791183
1438652.79320324
1363018.2421788506
1269067.6780866976
1365047.3295731067
1254169.4806723688
1314155.537966204
1476878.7283433245
1489120.4007849968
1612187.1218965235
1445321.8209904067
1447887.905541149
1507130.0078525275
1434852.8938247387
1433473.3128412731
1422705.6367584758
1511365.2035008385
1431417.1355563987
1577581.1497698098
1614961.0008038082
1587651.4726231694
1478134.1113589054
1577346.8884292098
1483496.2136036234
1635265.3194152275
1503460.0349943729
1619856.2521870986
1671507.588330641
1732637.4900396264
1740678.6666579267
1792667.9855724096
1782943.4696150934
1810277.0977426542
1924679.59950035
1975077.7005206342
1872134.1321092376
1818711.1362526563
1931652.9714415602
2124552.7161276466
2032298.8276617965
2077337.1188191317
1854746.8810154793
1896137.4653538314
1892536.1670891007
1839417.7634608399
1727361.1738484108
1742026.7460444947
1803644.8310598105
1854435.5940227704
1670068.8660959809
1704903.6514856631
1551470.1551326262
1742506.3807836946
1634568.8741233717
1674592.8639991716
1568519.5270885122
1429950.5210974226
1464882.8699344473
1461343.7468128009
1464449.1321360872
1483154.5614683337
1377370.4953874354
1459105.8065961031
1354242.9006125932
1370567.203811859
1339732.5664035638
1362652.742449842
1188396.2013869432
1320036.822993352
1314262.24597092
1336736.811828592
1264018.2973746378
1210139.8923570232
1249064.2342745366
1214933.8151123342
1313559.733401627
1239133.4043111098
1345791.5363790803
1216266.268511869
1398866.443914753
1343882.5541127399
1220435.3302880935
1160513.1560039876
1353078.9131172616
1392527.1490134262
1488853.265517401
1392582.6453030843
1377428.8589488321
1375541.7618260048
1530381.539376435
1455165.2615522696
1313206.8584937658
1261322.7798599629
1399434.9567411577
1368411.5042760514
1340520.5929711477
1449472.3586680684
1352967.601828228
1323821.5767365247
1437577.6871159195
1363511.7129093262
1281873.0991157298
1257373.9468410187
1349582.0805231142
1267170.434750398
1332980.3473935463
1315534.196951164
1327920.7861263885
1329552.290964213
1426094.3228543513
1495703.0596670853
1399874.1347159557
1327109.301099216
1361743.0099437311
1264334.282913106
1341308.3782632165
1369855.9472343044
1357338.5951164581
1298939.0153502724
1364672.7828805293
1338012.2635340667
1270092.1596079185
1059406.6536924285
1190967.8430486303
1280296.3423673683
1339371.6925837854
1342447.9713966155
1313996.5887697814
1144449.1289476983
1315812.2328040693
1228579.2162356814
1265527.435940702
1125309.673537467
1210426.6301683125
1176041.2828575196
1486978.7467181392
1376403.2675823725
1122271.153531702
1158029.3182817854
1182991.3945349983
1415417.7459903108
1339563.1169781357
1259790.1950210587
1216475.913952978
1236475.246006588
1283524.66156605
1253054.4044162328
1278351.29120665
1204296.699522033
1340910.7739738892
1305352.1291959086
1461669.904655486
1384709.885083866
1235462.526402451
1274748.1195697007
1417319.9957937659
1456939.5102257654
1337017.4174944807
1240305.0524636714
1119373.4741501252
1033424.7223335787
1117011.785754529
1118589.7036374898
1117890.2110559607
1078357.7718360128
1251835.4686652455
1161130.1386520758
1201493.3695691924
1155299.9020888128
1106824.7390389203
1272612.3638639878
1261543.6084646748
1210316.7717590914
1169060.8377940657
1077301.8208838587
974706.6093228402
1033141.2046040558
1277290.6866392186
1895627.8609522101
2749223.875768453
3820781.420785412
4832652.1986063635
4790213.577688547
3964626.667095232
3017878.987146058
1956000.6337642309
950358.3479555688
754827.7157172974
540818.4201068507
327913.1772662096
660681.7118970205
934696.1060818605
1040987.0261000268
1125848.307021353
1333222.9615409707
1131486.6585887843
1303072.215865537
1241984.389950714
1380176.449534383
1157216.5880443659
1389619.5172077306
1425379.7989380506
1495901.3629122695
1497742.760710953
1349261.7073557365
1330115.510990514
1413087.036910773
1424271.3408563149
1471294.5727693036
1409762.8515360986
1474997.4659432948
1617751.2951405346
1529917.6222393757
1578389.2562736142
1563180.3267771334
1561146.918906004
1590597.5657518748
1627910.751489893
1643661.4406524235
1613013.8125147636
1644534.3562688984
1609188.779295039
1831697.3178583086
1827812.2434595795
1899572.9318166946
1787953.358406666
1810504.1164414382
1811604.3002592502
1877396.0868399495
1765613.3705751002
1833318.5204696981
1875706.290305646
1903377.3703467525
2006504.4584172324
2035310.5117697625
1862003.2429451346
1859753.0827595135
1933862.4533494632
1881289.6626571617
1861336.338463777
1760468.7568030583
1766919.1264909692
1816927.182711029
1842488.6632222661
1730232.5337066764
1720441.9144999974
1503639.1120470644
1564002.0556239064
1579936.0588431351
1527181.1209904973
1543554.5882524077
1480294.0512437946
1402766.5380764257
1391885.5528947713
1457379.4131367395
1375472.0828344366
1257774.3684870622
1408541.7288985807
1443256.4142711766
1418424.0676449353
1173912.8788631028
1319830.2122157305
1252436.293817829
1381526.3431266588
1188493.9962501728
1190807.4676475148
1259882.7466855987
1210697.927904974
1233718.8289527607
1305962.5299454785
1264512.404252737
1262763.7726589798
1203695.5292314757
1326239.80321728
1273872.4538931404
1220187.4987192296
1183829.575207767
1134960.3669886054
1241438.4101682252
1319123.5012627472
1212319.7615049365
1181768.7829827361
1290821.0234674497
1498922.3432208775
1405394.740050546
1265436.1818662756
1120947.173453063
1369867.4278325
1290326.9641478993
1333022.1484265334
1369379.5860295396
1314376.3972296664
1256647.6035413875
1356326.4559228935
1378072.6500842713
1363060.4518552257
1245127.9068220987
1200028.6740275868
1401088.0
1392723.2832600498
1253777.3163545574
1291007.399646229
1360522.2568830207
1234164.0079451832
1379534.255779926
1223091.4684951245
1284402.9644847978
1257957.860374111
1373879.9115476308
1304124.2609386682
1302293.997015428
1186522.3162100727
1263164.927576394
1329625.5330599383
1270166.9539790687
1221580.5493656506
1229312.0
1233573.7264514691
1305707.2216250827
1313618.6356130296
1276486.660337203
1347255.514198673
1283221.5427392195
1174966.1855156184
1325372.3335269634
1208276.3732979752
1244524.2050860173
1290326.7641626154
1305061.219079629
1245673.9252734182
1337302.3042934723
1367140.9148376063
1302626.680910992
1273626.5447675067
1340761.7951435992
1445867.3567697587
1303522.0660415085
1078059.568174554
1114185.9388136414
1213417.2499869426
1349237.2267424697
1336299.5898910873
1298620.6209056203
1262776.1078384141
1537620.216492575
1505182.6585602604
1442644.2690533255
1485376.462377845
1323527.9960973768
1387205.0113805758
1451674.451793222
1473598.5699065086
1440816.3943463569
1444249.7545568128
1418627.5604550121
1452592.9108534546
1537086.1900476865
1229445.4886359163
1264254.8791825096
1172186.7774503622
1238591.7143706437
1290752.0
1278276.955188654
1080957.7698491598
1249459.849294095
1254437.150238636
1215707.0277363905
1198109.073290071
1196033.0614734732
1155382.859635852
1186018.9100394645
1178393.050488861
1057133.6001014092
1009720.8297339807
960433.6019455403
844555.8076429204
1083977.6155052923
1574005.2746920942
2343362.789042897
3302961.225205448
4290562.987448133
5004727.446100877
4410657.727109957
3388737.7451901636
2449730.9497612123
1038619.348945894
660586.9526134311
490206.1064927477
381674.011355955
504407.9664549358
799286.3674833506
965653.2546251826
1049070.0817035986
1161503.2849773625
1139109.3708992302
1184229.8743988187
1254612.943016851
1235617.720248354
1212547.8078300152
1206579.1366377708
1225603.429291102
1456281.6711080265
1453279.1957624345
1295083.6035540663
1342721.1418544697
1372368.8140453238
1438641.5990225114
1359210.832780198
1317338.2333278821
1226690.82759795
1280007.6152501402
1404322.109466895
1296718.9013445936
1289115.4352421444
1351873.3801182758
1380544.6351545546
1514764.6949324873
1388351.7004423563
1455787.9140203937
1510470.6632602827
1536475.1303085133
1601237.7485992636
1639913.0141355493
1663915.8503098309
1649611.4046965854
1650937.5398936681
1758711.809112513
1808887.53121115
1871497.3370603085
1799217.7501746302
1820333.381009173
1877244.9937836807
1872081.9449067044
1926138.2403424615
1937115.546925522
2041560.4024757738
1901194.3234443332
1805116.0417455407
1724316.6737021771
2022668.7367170588
1850338.4962853203
1768176.085359686
1720465.9505797748
1493438.607276394
1509533.0163145675
1521997.5507355698
1615625.6105107213
1618565.9027999328
1601286.9679889453
1677642.0120529737
1423359.4858132177
1477409.991486927
1338614.8338903384
1382970.4411640156
1358212.530228867
1354994.074267723
1468388.04934458
1407554.6654768272
1309968.8954434225
1334659.9328705575
1317304.7424250003
1207007.4757550072
1269276.975840745
1341915.4832872688
1356905.0102873684
1273542.7090498195
1321946.8411729767
1442637.1205279937
1372352.2859067298
1225605.380386387
1226753.225327362
1221201.548615447
1400962.3797389495
1389613.1436660571
1370417.7003681853
1311719.4363237487
1226607.1085252976
1264598.5713704654
1181831.1472145233
1271594.95680363
1341030.5706860519
1312395.823388278
1359329.212478716
1345744.4278823878
1401159.3913606317
1368523.1490948598
1360638.585728657
1392112.1792228746
1564378.6415734696
1524753.3405315555
1361280.6877470661
1331262.3252616874
1353805.470197833
1432010.046126076
1394101.4472781755
1257682.4732749013
1158180.6162533031
1306370.4282104278
1351341.6449582023
1414006.0682874992
1498169.8165640777
1288099.9984728356
1291035.3228792464
1296197.6658469967
1312238.1928520799
1410448.6000430067
1261573.8820040673
1227582.3807334297
1283134.372313848
1354371.3330955058
1228220.073028209
1358269.618258631
1343331.2335977436
1381697.5429265492
1312989.1918531999
1381505.3047109407
1297822.9389506986
1318300.7604596743
1406112.0309746214
1380824.5355984154
1327770.4603334263
1269514.6807413348
1095066.12090917
1205858.7557834126
1227709.159591761
1286396.338151071
1256491.5097676553
1306459.2069016905
1304392.374797478
1308981.254027848
1238616.108636159
1347374.9469872587
1293597.6397482627
1405095.5967197348
1338186.014071871
1340202.251448978
1290035.078182629
1333183.7269638693
1354160.1400675306
1385403.6146025313
1504892.1758369997
1390440.6074298555
1303337.4010262347
1327182.51240326
1302590.6976772293
1283462.811255864
1294583.9757207287
1363754.82683315
1238164.713820448
1451728.6280002848
1483068.8805724916
1471458.0904203486
1457367.9885528674
1308625.5559171916
1369343.28853399
1434428.2304123126
1418885.905903849
1288012.1005739465
1327152.0912705015
1411856.6036861981
1440794.3228563135
1367316.70789316
1230408.391600562
1196048.9843646148
1217642.8715332716
1241663.7890622027
1393194.0766742225
1249684.0754611043
1234559.545591214
1282955.2010966265
1302096.6463191728
1247869.3784910874
1262585.148993596
1071998.598418358
1041390.7621610188
1235314.2844537122
1197162.4136742738
1008854.8325893168
915797.6662925435
1086697.0744530524
1428156.4491925726
2183503.7213070653
3056136.760455255
4005527.9154592445
4844515.135211308
4747467.912983163
3811918.4117479203
2980886.906358096
1613340.1974343436
891368.5449458575
777717.9262179737
515734.5738429123
315810.76127250085
607089.2500411184
887092.4859207321
1241053.8087085502
1302506.0947685267
1375517.4709765853
1254055.1128904647
1313168.7165192382
1245040.3865942075
1291008.0831835202
1344452.7255418515
1295704.7060909192
1372536.5358778636
1348266.8943918878
1387300.174727134
1446742.753193647
1414676.3880262948
1403894.2308666739
1486077.791103168
1496597.0997092996
1350660.764612767
1461891.0886918337
1313340.810352607
1566748.831122179
1707261.0081097158
1550925.3066211864
1510537.4480399892
1485928.1740460065
1385569.8332546118
1437934.354204834
1476106.0938697942
1504643.54127139
1452738.7383151103
1626827.4627779906
1712419.394102184
1733691.1636472798
1677515.313021096
1669722.3149715662
1692166.2900929395
1773709.0152421654
1850317.113322764
1877133.696205922
1866775.088617431
1861944.8767138063
1909492.6056290357
1940356.6221334036
1860773.4708979172
1910694.0126880025
1957020.1939532128
1941165.742660787
1836635.996271725
1735013.4730450385
1757324.090417092
1705112.2484893994
1725635.445007891
1573226.6268161125
1648455.3917826193
1472011.9529400114
1394169.1598179452
1317676.6623861573
1501840.3998286615
1410957.968683103
1330943.7252146818
1242484.9014514084
1306508.790323486
1338243.4993420437
1357361.0029750215
1297059.7295818094
1106593.89745178
1284200.740793642
1212079.6810150028
1432468.9120400099
1306734.759313538
1060900.158189252
1081222.9083434893
1141069.8676672815
1165567.3526664618
1150153.340482031
1099584.2895378252
1136147.798979102
1130678.6887454952
1168152.9889057083
1212454.183518061
1268839.698829283
1204217.8401789854
1226784.9105284899
1148101.0280027855
1219902.4560519631
1167709.7158548338
1152882.1758425697
1212642.9516192037
1252375.993969507
1377832.8677762977
1316070.0449547793
1040218.4450384444
1228648.69333158
1220726.2768370705
1257755.2979217684
1242179.7072844238
1182139.7593209832
1227399.4613075152
1265222.6911167286
1259123.4014471103
1207759.4751165432
1186932.9433204536
1187750.529472425
1239616.6172456092
1319542.063237002
1233017.2782320192
1045874.406149267
1202356.2383198238
1198321.163045481
1272512.5552317018
1188949.180661418
1146985.8155683547
1224507.5353998526
1342283.2120731284
1185697.0197754363
1260943.0273539822
1166188.9354463986
1327452.3126730013
1333313.959639966
1271248.6367815507
1156289.2189825084
1166610.1321255558
1106621.5621116725
1282381.1258074993
1303660.9864947128
1120069.4159467116
1075362.212063201
1049238.9562873265
1170362.422483519
1339459.0408516198
1147754.0520588306
1103872.5781867518
1026719.1856144742
1241597.574519749
1212025.7585715204
1121525.7477246246
1104864.1731481226
1153802.8497904423
1121246.359050867
1109796.2413607936
1187496.4466240648
1215893.4508105945
1185361.5214100468
1174320.3690030822
1276944.8544422851
1092259.5616716712
1279040.2345241448
1141099.1824138612
1243061.161210373
1090090.8900373266
1190539.389859716
1270284.294347039
1309780.4831476798
1304001.3608743262
1250189.5047246239
1176566.547328233
1337996.565742389
1203292.874442346
1053839.0013356917
1278566.723510689
1245077.981378551
1242957.048506355
1109535.2740084315
1037588.5686471233
1018287.825986606
1076219.3741269028
1011116.8285514924
930458.759738729
1107474.7290136805
1192683.3924189701
1225429.6321229828
1181834.998694563
1064403.5510571816
1046497.8706124313
1143239.9039352203
1118405.106413233
969367.1132649689
628300.6090110936
676846.8094061923
893176.9496651521
1441759.173130962
2374638.991177729
3145795.0816771863
4175350.6795348483
4693589.67079483
4222781.030444349
3306114.8157149707
2384249.526120344
1065360.695160186
714595.0475768243
696384.0931264025
458764.82216069545
520448.633718737
463346.9932587052
808284.5645921183
1121467.9008511393
1221164.0737971072
1254931.1242713234
1101994.6305754571
1102282.0928285625
1240310.8231866225
1149972.0712513044
1144086.9525596923
1117775.9039169762
1242224.5509182378
1165852.7726672078
1339876.9496822807
1240500.0662753703
1166727.8112425976
1253540.8902221434
1305028.7610342882
1445480.593791026
1286055.7101161163
1386423.233591308
1334676.4697542847
1410182.8272512155
1619909.4290100185
1397950.5239120352
1417757.3927470348
1454263.5243720298
1702471.7498720656
1643046.961569526
1655140.8570575283
1418799.6329050988
1485655.4777198934
1658575.0890259817
1607672.4619666582
1669382.7739703967
1595473.610632639
1489642.066586753
1703724.5708795076
1828721.6925798785
1822606.3215050618
1763904.486853189
1785822.9257261306
1807279.2177677623
1792859.3760833682
1886031.768244922
1854737.9656379484
1719855.2438793245
1791065.8037680911
1801142.383180588
1814205.3876625716
1782003.1142854227
1604310.5794043445
1627363.1791595302
1743398.5591460508
1627537.0052690124
1620495.6010294943
1540644.5415978862
1546503.988593989
1334995.5453556841
1356076.1934737104
1325916.6770306774
1217327.5772163142
1309753.346458112
1281846.3322681778
1139821.3360077157
1151571.6854424065
1240420.6092847902
1159957.0520544015
1146351.2879678388
1119133.7466869894
1235977.5189075612
1208188.7203091676
1139471.339473104
1175557.9627829895
1086783.9056831053
1251828.1810986933
1092034.6477365515
915512.5620662879
1184675.9982076082
1272032.1482991807
1266359.2670045022
1186773.693199807
1170640.3361827803
1232748.3327844199
1300236.019754555
1183283.1980280736
1101270.2905822315
1067125.2881447885
973393.5516953301
1047445.8923247625
1104594.836704242
1183487.6357267976
1277285.856658599
1242331.5582681939
1269063.144154388
1213892.3948627147
1178495.7846671387
1182444.9344489868
1210323.481645158
1173325.5286770808
1204496.742739338
1187188.910256749
1101596.864680237
1178702.2898892981
1234687.6998834158
1244704.638244247
1166848.124919999
1193038.0931887105
1072145.8566288792
1148099.7915256151
1245006.5263194393
1207945.0482503115
1086678.985486303
971258.0566056673
1086923.4965167276
1045929.3660972079
1112155.0967296674
814678.755333101
987598.255370131
976835.402789254
998190.2105637315
976803.9211836705
824112.044013417
904032.9445489794
839489.4783117273
1001871.0240451522
1064624.4237427127
990996.7022880355
883516.088544604
936505.0015855903
1029457.4185365145
1027617.8997149765
928785.5454830658
978297.9059357523
861827.4297612048
924400.7769307739
973373.6418449779
969471.2246907621
1013386.7731972607
1051525.7744866838
1179291.1692379375
1007319.5546144639
1033584.8308988349
1148117.8404676393
1124398.61618759
1119765.7328011985
1102210.7212182563
1167471.1479775875
1038383.0243004989
1127081.8473771263
1028745.3780732997
1171292.7267044273
1156040.0710136103
1016870.592366367
940763.4361386602
937900.9391575159
1016011.1074186951
1003370.505024125
946552.3938052487
1030621.4953388425
896297.2094243875
882870.9501451717
844842.3262611099
869915.083513878
1012033.4146736024
1083373.543101794
1042446.21223393
830784.314796658
778170.3011616832
661914.7379213049
696005.911874964
677707.4525171664
967567.5835120246
1650016.5275879223
2575848.013768324
3571914.126753416
4411951.1769202575
4505312.426315498
3516684.4389756927
2569315.067284834
1553037.1460626877
670694.9723411989
564051.7701691112
212691.40706194917
54332.62970787269
309247.98277499597
508490.0906979327
882331.1102524502
922545.2315126951
1089993.31539198
1066008.972379918
1061413.9251861486
1097210.1098897518
1052782.236538275
953966.8753678246
928700.4398266701
1040053.624409283
1140045.1591122947
1172088.2612371547
1012369.3332540992
975428.0985580744
1076831.9491785944
1215808.2010144284
1131448.3336008212
1155497.5190664793
1195044.7026613392
1245715.612572432
1306739.6852067218
1154428.7113711077
1274244.3801103034
1290221.451378062
1287555.6432889558
1469990.450619246
1414883.7822434125
1474790.472311717
1367106.6234269496
1408618.6486334985
1615472.1450774337
1594421.5870393482
1647513.073785881
1641163.0379825362
1626535.3880857367
1642252.7752169974
1620454.3745127395
1678203.9618512248
1604052.1589624935
1755349.2125709325
1720391.6915375215
1662616.328918642
1741748.488087448
1816170.7913331168
1711610.065362858
1698653.974090303
1725567.079167809
1669472.554884368
1799455.807728401
1651228.9648717786
1660990.2173979427
1525000.4379490481
1538411.0166617124
1349813.6441233214
1372342.127205143
1496756.8246247743
1458153.1397668687
1285191.5416720395
1164030.8500272704
1082534.8209523738
1209407.8976734364
1274138.1978037013
1228080.1412457777
1302695.6915593871
1119726.6546589963
1035834.5382275415
1072863.031257481
1103638.297035584
1018424.9572274424
1076396.7617129602
1040007.9142005556
1077472.3064033813
1150790.758184367
1026209.4035577276
991445.6097751578
999062.9980840101
1063586.2786968586
1046030.1310573488
1034062.3981146581
1121853.3892989047
1026466.3758568458
1038969.5081166957
1074527.8053282243
1026097.283341366
1053439.091785175
965952.2806962295
1165326.9391168375
1282239.699529348
1194241.8586482964
1212027.623355295
983962.6546413163
992185.1924432223
937997.1770016425
1239689.9345512127
1135175.9413292257
1150033.9383404662
1082175.786681635
1105375.0091507738
1107007.7699870497
1135221.8547476588
1096607.278109677
1059207.3998931858
1178510.5466166178
1100577.5244005432
1068139.5996697962
1034819.2980383007
1222323.9913185462
1138824.5750764897
1271186.1480398397
1012085.2682860212
1044117.2617581136
1053844.808901272
1058414.4167130715
1080855.3114568365
914505.4771514572
1119327.8306955823
964795.1839849956
1071310.1773576003
1123594.7192292155
1071173.3998790681
861140.0392858626
1072003.513451108
1032070.0913702289
1119270.5200553879
1068529.1132511047
1069861.6532996923
997262.1429393889
1154039.4737807224
935860.013063603
996891.4865040561
1090174.6873516391
1048132.0625352247
1111559.126466845
1156941.7511790046
1116510.4993546025
1099335.572041698
1053393.5140119456
1183993.739794633
1325846.0353225206
1391737.111491079
1211788.551862351
1088323.7878462798
1041612.7879713792
1157605.3491947218
1234307.183205959
1076771.341083324
1171237.4723413666
1211673.9246875315
1407418.8512508266
1294243.893327217
1160720.106603795
1117432.4647451383
1186646.5360677529
1279337.9910181693
1216555.3516272998
1180863.7330753156
1028220.3950542555
1023193.8492683072
1134423.5672800594
1107492.2997073496
1166670.118327133
1005296.3575836511
1000551.648311583
1097140.3659459194
1139654.287044794
1076343.3884906764
1013514.394480659
882747.5244428049
953427.4634588808
951251.5150222136
900023.2029925883
849020.9094701412
725638.9384116919
976392.566400145
1707694.353736029
2588197.113425708
3677248.781105805
4631851.412113468
4751447.789004605
3965207.5395340887
2801673.910875027
1803981.416658523
819976.8000103752
569091.1930087658
369409.0258484243
192710.77538200887
351250.9896537147
607380.3746253483
879403.5592727128
1081909.5230997552
1138013.1965571882
1035143.8367666922
960191.4684631807
1015745.6021982295
1099916.170436432
1222370.7542796999
1261164.1835459082
1086610.3113270192
1031062.0532555213
1145914.9717922492
1135965.4270085956
1082280.455236564
1033824.646668342
1135736.7499842583
1066556.7302369326
1138578.4337940845
1016748.8445950754
1133847.1852469004
1313120.880392331
1317169.216816218
1306657.8770055242
1351671.556542363
1304005.3508771905
1205102.3386764587
1305225.0315555788
1217747.6948715982
1402842.638361099
1515278.3445851027
1620116.7561596907
1601922.6383722771
1526475.612763912
1605660.354200036
1449306.9318510836
1450975.858982775
1565836.4094762087
1654787.234082169
1658059.5127170684
1752324.0955220729
1712256.176266363
1769458.1547935088
1885187.0257013598
1866739.5284133852
1660180.4044556306
1725108.58250516
1815701.5814320624
1765682.837160128
1589399.479098677
1550851.6951536664
1581310.2917235352
1460477.2876442475
1633760.1073341204
1421158.8650288177
1435074.8364997364
1309976.891492574
1396808.4998741797
1389932.6414532524
1383736.2404456811
1413355.8711012504
1208086.4522769796
1219221.3704898788
1127617.3852048567
1278881.7538545728
1169968.392050154
1027312.746633465
991613.8954924729
958872.698266475
1079737.450787159
1026738.4098241548
1112802.2596984454
1155568.9555928777
955537.5967811857
1041080.7281833714
1043769.5966236044
998473.6832480722
1063119.6027546513
1105920.4662546325
1255423.6279581198
1178320.7113405804
1197859.275281471
1037942.0902013346
1219413.552679092
1251171.8066737317
1079193.6402441575
1181765.8322623216
1278964.080497332
1300952.1749113875
1107330.3990913655
1129513.384319573
1170060.2510465644
1268119.465459692
1149770.608748202
1124577.587564166
1111801.131672188
1141823.9645119687
1152060.386389131
1038467.1545177519
1144517.6035316607
1094056.932906211
1107055.2724153248
1154987.4224104667
1150770.0447102827
1169489.9014857162
1306104.432332295
1090849.6798830384
1094980.1710861223
1096754.1863971818
1106826.0370751373
1096081.5244098383
1207885.4182156983
1043742.0620788102
1145376.2765927135
1204992.4668574026
1170723.030636786
1044155.8621583427
1066648.4099747706
1002089.7403585146
1125634.1253034158
1177496.2431133946
1138813.851471918
978817.9930334913
1112600.9227061167
1012814.1619136517
1108796.1445106287
1025828.5504032979
911765.6143148553
1017905.1886342186
1127178.6105215426
1195674.5601994654
1192271.5518904582
1055651.6293781442
924984.132437279
874455.9015300266
1015513.4324343192
1145954.489164492
1128119.0362156087
1104503.2940729419
1036914.0705040214
1021303.0769349436
1072215.1452269095
962404.639618243
959534.8466510145
1000092.6773364068
1018633.8129128214
1143671.4718309469
1088339.4360123293
991343.041891631
1024928.0276295387
1161011.3206035497
1001825.7689774461
1148437.6441934695
1038009.7590099276
1028611.9400155381
974318.3286806085
1152691.5495512448
1069528.6768272412
1165794.9322305883
1173520.2871643552
1130818.6683155205
1038511.0560894668
1162479.488543944
968698.8879653147
896865.1555032154
898063.5947252266
1038943.6442527415
966634.5785737083
929834.9014885987
915965.7745050465
918978.4217691976
996707.1899146388
810206.3643786566
865404.8866762272
900174.6512032397
920160.2550449979
981242.1933144104
922485.4268483131
903691.6578377559
1006155.9176570002
882825.1070913078
625998.9183165324
559941.892193783
1058022.358270299
1868020.3362135203
2757417.5646086372
3760185.335060725
4626106.412696003
4343645.787846408
3513363.241043129
2459385.2521147095
1323895.0523337182
447409.3321142424
410342.4425932623
62271.97557736473
116533.22778040508
419325.85482583323
514470.6451531236
853448.5539868851
859066.323376928
763166.1424597829
914988.7935621936
912126.4911541962
958679.9326712094
920975.2909051869
949062.7908983703
1018127.0700516669
1027286.4574436623
960248.3202797928
1012850.8735731954
963996.7105929523
998338.624882458
1015499.4069445392
1156228.3639703118
1022168.6380138458
1098235.3653215545
1184419.8705936049
1211867.5248307916
1252876.7452694252
1049838.529304983
1063836.210587506
1070185.0015061025
1133613.4684267181
1208678.5735126617
1159205.4450515327
1052443.7724151528
1234766.2922215932
1423995.0998567764
1546710.5904938763
1552075.1247763375
1334873.1290724329
1218137.1615814327
1342808.5114815305
1443992.179209954
1422089.3686081425
1485811.7218533459
1595025.516134956
1696953.7757527218
1657481.1985858385
1476465.5226145585
1619514.4964429203
1688715.353728395
1762492.3678411723
1779875.4125295808
1685020.5097188135
1547608.8206206588
1439547.7801530506
1468941.039551841
1339645.5907803758
1434417.7864989096
1383167.4890738062
1291290.1700557934
1237885.0615593577
1313903.4949775196
1265602.1725560413
1125113.7145597565
1324625.918493711
1366828.291019522
1251551.5929667149
1134728.4179006186
918478.2531101477
762268.1353293399
842289.3553148407
960471.0068938232
1087234.1504175833
1105601.7359356645
1066974.0201691457
1025385.4658262047
983746.1444585166
939096.2469899884
1183300.7997304045
963456.5214886017
823365.5484665646
1026170.5947887653
970578.9384115738
959888.9631588821
1075988.4300279533
973376.470001884
1036803.1871746314
934673.5875570177
864727.0160126532
772565.103670382
909751.199659582
1032233.8594639889
1048698.6531836495
979280.4017225712
958400.5133626263
958387.1095618174
1148938.8779602712
1009762.0640194195
993153.7941453094
804975.0415782501
922430.102820066
995706.910876584
1132000.9761450225
1153337.816564165
968252.5975483833
867056.3039980126
1087980.5482378476
1124670.6973517006
1188893.9574394468
1008180.1898603754
961714.251334192
1077468.766864794
1109877.471134119
1127080.5025298044
1057198.231335509
1061885.2051357985
1006517.2965326133
1088139.1073782174
895585.2220042453
933935.1220632995
880505.0271863828
1000105.2799062051
1094808.454236449
1075922.1397209675
1024225.3514715974
983279.2103410874
904516.9990043066
926031.3455407096
1010245.7856682859
921798.9534776019
982558.0454444502
1063108.2059548919
1025985.2772929634
1053967.8978492795
1104271.9444826553
940517.5022846377
951367.3353342908
1054834.4678047036
1034335.1635755688
963200.5879533247
870549.2535072697
860826.9267085565
941397.6331203614
1017108.7077244032
952709.630407188
971883.6769830383
1058537.9370140107
961253.9852700452
1094627.9436444282
1090008.0572777407
1162632.931653466
1036286.0577582922
1080389.1404621573
1150382.1903344623
974765.7197582929
1082044.4930384476
1047229.0602080341
927272.0030034072
1088599.9199212159
1114087.2946851065
1032302.4609024381
1146170.1296444642
1226379.0981869267
1274979.7227909015
1249437.4222759465
1150101.0096821964
956528.1221026871
1141688.9201710108
1073495.0529364794
1135317.89618056
1082108.9071948405
1205564.7055084973
1190585.251127441
1027893.6898646485
1055471.997029182
867381.7592646221
926392.928253056
929438.4109080062
983235.5084291312
993890.8749295734
1093336.2996746262
982666.5815954211
979904.8605072229
1008479.2217655015
1002064.0787517737
1148568.09699101
802127.3346922913
812731.15117454
755158.4684005242
743407.3122623698
935533.0988664054
1266483.4816607053
1989711.4980574623
3018388.5307521126
3950136.752076361
4639808.607627099
4232807.07609801
3439127.6801000126
2646576.315165813
1413183.2058432784
676846.1131702597
480672.2463469017
71179.9936639322
300345.2398538894
592166.9663789415
847656.6944780379
1111917.243982571
1205095.8323377366
1102491.7968454028
1037431.0159545946
1045866.4245708296
954868.022283321
952064.3222594828
969577.390338955
1074914.4261981468
1186696.5978101415
1182715.1071704545
1195644.2533432439
1183280.4584427022
1138845.9440385066
1219381.670560426
1217590.98486926
1186099.2615939172
1218946.8127490457
1323649.1630482448
1247586.8973497676
1303352.3960246488
1345737.1931901383
1313053.8400350078
1342785.9927156596
1383745.1031178918
1546301.0893149741
